Time	MABP [mmHg]	CBFV-L [cm/s]	CBFV-R [cm/s]	etCO2 [kPa]	MN					
0.0000	78.6854	67.7676	0.0000	4.3601	2.0000
0.1000	78.9884	68.2211	0.0000	4.3601	2.0000
0.2000	79.2914	68.6746	0.0000	4.3601	2.0000
0.3000	79.5944	69.1280	0.0000	4.3601	2.0000
0.4000	79.8974	69.5815	0.0000	4.3601	2.0000
0.5000	80.2223	70.0268	0.0000	4.3601	2.0000
0.6000	80.6624	70.4294	0.0000	4.3601	2.0000
0.7000	81.1025	70.8320	0.0000	4.3599	2.0000
0.8000	81.5426	71.2345	0.0000	4.3598	2.0000
0.9000	81.9827	71.6371	0.0000	4.3597	2.0000
1.0000	82.4228	72.0397	0.0000	4.3595	2.0000
1.1000	82.8629	72.4423	0.0000	4.3594	2.0000
1.2000	83.3030	72.8448	0.0000	4.3592	2.0000
1.3000	83.6936	73.1909	0.0000	4.3591	2.0000
1.4000	83.9088	73.3366	0.0000	4.3590	2.0000
1.5000	84.1239	73.4822	0.0000	4.3588	2.0000
1.6000	84.3391	73.6279	0.0000	4.3587	2.0000
1.7000	84.5542	73.7736	0.0000	4.3586	2.0000
1.8000	84.7694	73.9193	0.0000	4.3584	2.0000
1.9000	84.9845	74.0649	0.0000	4.3583	2.0000
2.0000	85.1997	74.2106	0.0000	4.3582	2.0000
2.1000	85.4131	74.3475	0.0000	4.3580	2.0000
2.2000	85.5985	74.3465	0.0000	4.3579	2.0000
2.3000	85.7839	74.3456	0.0000	4.3577	2.0000
2.4000	85.9693	74.3446	0.0000	4.3576	2.0000
2.5000	86.1547	74.3437	0.0000	4.3575	2.0000
2.6000	86.3402	74.3427	0.0000	4.3573	2.0000
2.7000	86.5256	74.3418	0.0000	4.3572	2.0000
2.8000	86.7110	74.3408	0.0000	4.3571	2.0000
2.9000	86.9047	74.3534	0.0000	4.3569	2.0000
3.0000	87.2291	74.5784	0.0000	4.3568	2.0000
3.1000	87.5535	74.8033	0.0000	4.3566	2.0000
3.2000	87.8779	75.0283	0.0000	4.3565	2.0000
3.3000	88.2023	75.2533	0.0000	4.3564	2.0000
3.4000	88.5266	75.4782	0.0000	4.3562	2.0000
3.5000	88.8510	75.7032	0.0000	4.3561	2.0000
3.6000	89.1754	75.9282	0.0000	4.3560	2.0000
3.7000	89.4630	76.1225	0.0000	4.3558	2.0000
3.8000	89.6342	76.2201	0.0000	4.3557	2.0000
3.9000	89.8055	76.3176	0.0000	4.3556	2.0000
4.0000	89.9767	76.4152	0.0000	4.3554	2.0000
4.1000	90.1479	76.5127	0.0000	4.3553	2.0000
4.2000	90.3192	76.6102	0.0000	4.3551	2.0000
4.3000	90.4904	76.7078	0.0000	4.3550	2.0000
4.4000	90.6616	76.8053	0.0000	4.3549	2.0000
4.5000	90.8328	76.9028	0.0000	4.3547	2.0000
4.6000	90.6979	76.5036	0.0000	4.3546	2.0000
4.7000	90.4663	75.9474	0.0000	4.3545	2.0000
4.8000	90.2347	75.3913	0.0000	4.3543	2.0000
4.9000	90.0031	74.8352	0.0000	4.3542	2.0000
5.0000	89.7714	74.2790	0.0000	4.3541	2.0000
5.1000	89.5398	73.7229	0.0000	4.3539	2.0000
5.2000	89.3082	73.1667	0.0000	4.3538	2.0000
5.3000	89.0766	72.6106	0.0000	4.3536	2.0000
5.4000	88.8450	72.0545	0.0000	4.3535	2.0000
5.5000	88.5325	71.6012	0.0000	4.3534	2.0000
5.6000	88.1614	71.2225	0.0000	4.3532	2.0000
5.7000	87.7903	70.8437	0.0000	4.3531	2.0000
5.8000	87.4193	70.4650	0.0000	4.3530	2.0000
5.9000	87.0482	70.0863	0.0000	4.3528	2.0000
6.0000	86.6771	69.7075	0.0000	4.3527	2.0000
6.1000	86.3060	69.3288	0.0000	4.3525	2.0000
6.2000	85.9350	68.9500	0.0000	4.3524	2.0000
6.3000	85.5639	68.5713	0.0000	4.3523	2.0000
6.4000	85.2084	68.2765	0.0000	4.3521	2.0000
6.5000	84.8642	68.0426	0.0000	4.3520	2.0000
6.6000	84.5200	67.8086	0.0000	4.3519	2.0000
6.7000	84.1758	67.5746	0.0000	4.3517	2.0000
6.8000	83.8315	67.3407	0.0000	4.3516	2.0000
6.9000	83.4873	67.1067	0.0000	4.3515	2.0000
7.0000	83.1431	66.8727	0.0000	4.3513	2.0000
7.1000	82.7989	66.6388	0.0000	4.3512	2.0000
7.2000	82.4547	66.4048	0.0000	4.3510	2.0000
7.3000	82.4135	66.6988	0.0000	4.3509	2.0000
7.4000	82.3916	67.0264	0.0000	4.3508	2.0000
7.5000	82.3697	67.3540	0.0000	4.3506	2.0000
7.6000	82.3479	67.6817	0.0000	4.3505	2.0000
7.7000	82.3260	68.0093	0.0000	4.3504	2.0000
7.8000	82.3042	68.3370	0.0000	4.3502	2.0000
7.9000	82.2823	68.6646	0.0000	4.3501	2.0000
8.0000	82.2604	68.9923	0.0000	4.3499	2.0000
8.1000	82.1741	69.1544	0.0000	4.3390	2.0000
8.2000	81.9732	69.0223	0.0000	4.3280	2.0000
8.3000	81.7723	68.8902	0.0000	4.3170	2.0000
8.4000	81.5714	68.7581	0.0000	4.3060	2.0000
8.5000	81.3705	68.6260	0.0000	4.2950	2.0000
8.6000	81.1695	68.4939	0.0000	4.2840	2.0000
8.7000	80.9686	68.3618	0.0000	4.2730	2.0000
8.8000	80.7677	68.2297	0.0000	4.2620	2.0000
8.9000	80.5668	68.0976	0.0000	4.2510	2.0000
9.0000	80.3326	67.9724	0.0000	4.2400	2.0000
9.1000	80.0207	67.8633	0.0000	4.2290	2.0000
9.2000	79.7088	67.7542	0.0000	4.2180	2.0000
9.3000	79.3969	67.6451	0.0000	4.2070	2.0000
9.4000	79.0850	67.5360	0.0000	4.1960	2.0000
9.5000	78.7731	67.4269	0.0000	4.1850	2.0000
9.6000	78.4612	67.3178	0.0000	4.1740	2.0000
9.7000	78.1493	67.2087	0.0000	4.1630	2.0000
9.8000	77.8374	67.0996	0.0000	4.1520	2.0000
9.9000	77.7956	67.2274	0.0000	4.1410	2.0000
10.0000	77.9339	67.5131	0.0000	4.1300	2.0000
10.1000	78.0721	67.7989	0.0000	4.1190	2.0000
10.2000	78.2103	68.0847	0.0000	4.1080	2.0000
10.3000	78.3486	68.3704	0.0000	4.0970	2.0000
10.4000	78.4868	68.6562	0.0000	4.0861	2.0000
10.5000	78.6251	68.9419	0.0000	4.0751	2.0000
10.6000	78.7633	69.2277	0.0000	4.0641	2.0000
10.7000	78.8271	69.4547	0.0000	4.0531	2.0000
10.8000	78.8035	69.6126	0.0000	4.0421	2.0000
10.9000	78.7799	69.7706	0.0000	4.0311	2.0000
11.0000	78.7563	69.9286	0.0000	4.0201	2.0000
11.1000	78.7326	70.0866	0.0000	4.0091	2.0000
11.2000	78.7090	70.2446	0.0000	3.9981	2.0000
11.3000	78.6854	70.4026	0.0000	3.9871	2.0000
11.4000	78.6618	70.5606	0.0000	3.9761	2.0000
11.5000	78.6449	70.7120	0.0000	3.9651	2.0000
11.6000	78.6879	70.8048	0.0000	3.9541	2.0000
11.7000	78.7309	70.8975	0.0000	3.9431	2.0000
11.8000	78.7739	70.9903	0.0000	3.9321	2.0000
11.9000	78.8169	71.0830	0.0000	3.9211	2.0000
12.0000	78.8599	71.1757	0.0000	3.9101	2.0000
12.1000	78.9029	71.2685	0.0000	3.8991	2.0000
12.2000	78.9459	71.3612	0.0000	3.8881	2.0000
12.3000	79.0129	71.4774	0.0000	3.8771	2.0000
12.4000	79.3568	71.8628	0.0000	3.8661	2.0000
12.5000	79.7007	72.2483	0.0000	3.8551	2.0000
12.6000	80.0445	72.6338	0.0000	3.8441	2.0000
12.7000	80.3884	73.0192	0.0000	3.8332	2.0000
12.8000	80.7323	73.4047	0.0000	3.8222	2.0000
12.9000	81.0761	73.7902	0.0000	3.8112	2.0000
13.0000	81.4200	74.1756	0.0000	3.8002	2.0000
13.1000	81.7639	74.5611	0.0000	3.7892	2.0000
13.2000	81.9949	74.6957	0.0000	3.7782	2.0000
13.3000	82.1902	74.7511	0.0000	3.7672	2.0000
13.4000	82.3855	74.8065	0.0000	3.7562	2.0000
13.5000	82.5809	74.8619	0.0000	3.7452	2.0000
13.6000	82.7762	74.9173	0.0000	3.7342	2.0000
13.7000	82.9715	74.9727	0.0000	3.7232	2.0000
13.8000	83.1669	75.0281	0.0000	3.7122	2.0000
13.9000	83.3622	75.0835	0.0000	3.7012	2.0000
14.0000	83.5575	75.1389	0.0000	3.6902	2.0000
14.1000	83.5897	74.9797	0.0000	3.6792	2.0000
14.2000	83.5038	74.6650	0.0000	3.6682	2.0000
14.3000	83.4178	74.3504	0.0000	3.6572	2.0000
14.4000	83.3319	74.0357	0.0000	3.6462	2.0000
14.5000	83.2460	73.7211	0.0000	3.6352	2.0000
14.6000	83.1600	73.4064	0.0000	3.6242	2.0000
14.7000	83.0741	73.0918	0.0000	3.6132	2.0000
14.8000	82.9881	72.7772	0.0000	3.6022	2.0000
14.9000	82.9022	72.4625	0.0000	3.5912	2.0000
15.0000	82.8155	72.1054	0.0000	3.5802	2.0000
15.1000	82.7280	71.6985	0.0000	3.5693	2.0000
15.2000	82.6405	71.2915	0.0000	3.5583	2.0000
15.3000	82.5530	70.8846	0.0000	3.5473	2.0000
15.4000	82.4654	70.4776	0.0000	3.5363	2.0000
15.5000	82.3779	70.0707	0.0000	3.5253	2.0000
15.6000	82.2904	69.6638	0.0000	3.5143	2.0000
15.7000	82.2029	69.2568	0.0000	3.5033	2.0000
15.8000	82.1154	68.8499	0.0000	3.4923	2.0000
15.9000	82.1182	68.8306	0.0000	3.4813	2.0000
16.0000	82.1675	69.0111	0.0000	3.4703	2.0000
16.1000	82.2168	69.1915	0.0000	3.4593	2.0000
16.2000	82.2661	69.3720	0.0000	3.4483	2.0000
16.3000	82.3154	69.5525	0.0000	3.4373	2.0000
16.4000	82.3647	69.7329	0.0000	3.4334	2.0000
16.5000	82.4140	69.9134	0.0000	3.4580	2.0000
16.6000	82.4633	70.0939	0.0000	3.4825	2.0000
16.7000	82.5126	70.2743	0.0000	3.5071	2.0000
16.8000	82.4915	70.2527	0.0000	3.5317	2.0000
16.9000	82.3337	69.8388	0.0000	3.5562	2.0000
17.0000	82.1759	69.4249	0.0000	3.5808	2.0000
17.1000	82.0181	69.0110	0.0000	3.6054	2.0000
17.2000	81.8603	68.5971	0.0000	3.6299	2.0000
17.3000	81.7024	68.1832	0.0000	3.6545	2.0000
17.4000	81.5446	67.7693	0.0000	3.6791	2.0000
17.5000	81.3868	67.3554	0.0000	3.7036	2.0000
17.6000	81.2290	66.9415	0.0000	3.7282	2.0000
17.7000	81.0712	66.5276	0.0000	3.7527	2.0000
17.8000	80.7951	66.2727	0.0000	3.7773	2.0000
17.9000	80.4893	66.0576	0.0000	3.8019	2.0000
18.0000	80.1836	65.8425	0.0000	3.8264	2.0000
18.1000	79.8779	65.6273	0.0000	3.8510	2.0000
18.2000	79.5721	65.4122	0.0000	3.8756	2.0000
18.3000	79.2664	65.1970	0.0000	3.9001	2.0000
18.4000	78.9607	64.9819	0.0000	3.9247	2.0000
18.5000	78.6550	64.7668	0.0000	3.9493	2.0000
18.6000	78.3492	64.5516	0.0000	3.9738	2.0000
18.7000	78.2268	64.5526	0.0000	3.9984	2.0000
18.8000	78.1907	64.6553	0.0000	4.0229	2.0000
18.9000	78.1545	64.7580	0.0000	4.0475	2.0000
19.0000	78.1184	64.8607	0.0000	4.0721	2.0000
19.1000	78.0822	64.9634	0.0000	4.0966	2.0000
19.2000	78.0461	65.0661	0.0000	4.1212	2.0000
19.3000	78.0099	65.1688	0.0000	4.1458	2.0000
19.4000	77.9738	65.2715	0.0000	4.1703	2.0000
19.5000	77.9904	65.4346	0.0000	4.1949	2.0000
19.6000	78.1425	65.7526	0.0000	4.2195	2.0000
19.7000	78.2946	66.0707	0.0000	4.2440	2.0000
19.8000	78.4467	66.3888	0.0000	4.2431	2.0000
19.9000	78.5988	66.7069	0.0000	4.2387	2.0000
20.0000	78.7509	67.0250	0.0000	4.2343	2.0000
20.1000	78.9031	67.3430	0.0000	4.2299	2.0000
20.2000	79.0552	67.6611	0.0000	4.2254	2.0000
20.3000	79.2073	67.9792	0.0000	4.2210	2.0000
20.4000	79.2636	68.0333	0.0000	4.2166	2.0000
20.5000	79.2863	67.9945	0.0000	4.2122	2.0000
20.6000	79.3090	67.9558	0.0000	4.2078	2.0000
20.7000	79.3316	67.9171	0.0000	4.2034	2.0000
20.8000	79.3543	67.8784	0.0000	4.1990	2.0000
20.9000	79.3770	67.8397	0.0000	4.1946	2.0000
21.0000	79.3997	67.8009	0.0000	4.1902	2.0000
21.1000	79.4223	67.7622	0.0000	4.1857	2.0000
21.2000	79.4450	67.7235	0.0000	4.1813	2.0000
21.3000	79.4229	67.7313	0.0000	4.1769	2.0000
21.4000	79.3948	67.7455	0.0000	4.1725	2.0000
21.5000	79.3666	67.7597	0.0000	4.1681	2.0000
21.6000	79.3384	67.7739	0.0000	4.1637	2.0000
21.7000	79.3102	67.7881	0.0000	4.1593	2.0000
21.8000	79.2820	67.8023	0.0000	4.1549	2.0000
21.9000	79.2538	67.8165	0.0000	4.1505	2.0000
22.0000	79.2256	67.8307	0.0000	4.1460	2.0000
22.1000	79.2914	67.9350	0.0000	4.1416	2.0000
22.2000	79.4673	68.1453	0.0000	4.1372	2.0000
22.3000	79.6432	68.3555	0.0000	4.1328	2.0000
22.4000	79.8192	68.5657	0.0000	4.1284	2.0000
22.5000	79.9951	68.7759	0.0000	4.1240	2.0000
22.6000	80.1711	68.9862	0.0000	4.1196	2.0000
22.7000	80.3470	69.1964	0.0000	4.1152	2.0000
22.8000	80.5229	69.4066	0.0000	4.1107	2.0000
22.9000	80.7584	69.6171	0.0000	4.1063	2.0000
23.0000	81.0532	69.8278	0.0000	4.1019	2.0000
23.1000	81.3481	70.0386	0.0000	4.0975	2.0000
23.2000	81.6430	70.2493	0.0000	4.0931	2.0000
23.3000	81.9379	70.4600	0.0000	4.0887	2.0000
23.4000	82.2328	70.6707	0.0000	4.0843	2.0000
23.5000	82.5277	70.8814	0.0000	4.0799	2.0000
23.6000	82.8226	71.0922	0.0000	4.0761	2.0000
23.7000	83.0731	71.2691	0.0000	4.0729	2.0000
23.8000	83.0513	71.2386	0.0000	4.0696	2.0000
23.9000	83.0294	71.2081	0.0000	4.0663	2.0000
24.0000	83.0076	71.1776	0.0000	4.0631	2.0000
24.1000	82.9858	71.1471	0.0000	4.0598	2.0000
24.2000	82.9640	71.1166	0.0000	4.0565	2.0000
24.3000	82.9421	71.0861	0.0000	4.0533	2.0000
24.4000	82.9203	71.0556	0.0000	4.0500	2.0000
24.5000	82.8985	71.0251	0.0000	4.0467	2.0000
24.6000	82.8158	70.8592	0.0000	4.0434	2.0000
24.7000	82.6038	70.4054	0.0000	4.0402	2.0000
24.8000	82.3917	69.9516	0.0000	4.0369	2.0000
24.9000	82.1797	69.4978	0.0000	4.0336	2.0000
25.0000	81.9677	69.0440	0.0000	4.0304	2.0000
25.1000	81.7557	68.5902	0.0000	4.0271	2.0000
25.2000	81.5437	68.1364	0.0000	4.0238	2.0000
25.3000	81.3317	67.6826	0.0000	4.0206	2.0000
25.4000	81.1196	67.2288	0.0000	4.0173	2.0000
25.5000	80.9583	66.9270	0.0000	4.0140	2.0000
25.6000	80.8336	66.7355	0.0000	4.0107	2.0000
25.7000	80.7090	66.5439	0.0000	4.0075	2.0000
25.8000	80.5843	66.3523	0.0000	4.0042	2.0000
25.9000	80.4597	66.1607	0.0000	4.0009	2.0000
26.0000	80.3350	65.9691	0.0000	3.9977	2.0000
26.1000	80.2104	65.7775	0.0000	3.9944	2.0000
26.2000	80.0857	65.5859	0.0000	3.9911	2.0000
26.3000	79.9967	65.4374	0.0000	3.9879	2.0000
26.4000	80.0701	65.4855	0.0000	3.9846	2.0000
26.5000	80.1434	65.5336	0.0000	3.9813	2.0000
26.6000	80.2167	65.5817	0.0000	3.9780	2.0000
26.7000	80.2900	65.6297	0.0000	3.9748	2.0000
26.8000	80.3634	65.6778	0.0000	3.9715	2.0000
26.9000	80.4367	65.7259	0.0000	3.9677	2.0000
27.0000	80.5100	65.7740	0.0000	3.9628	2.0000
27.1000	80.5834	65.8221	0.0000	3.9579	2.0000
27.2000	80.5365	65.7768	0.0000	3.9530	2.0000
27.3000	80.3694	65.6383	0.0000	3.9482	2.0000
27.4000	80.2023	65.4998	0.0000	3.9433	2.0000
27.5000	80.0352	65.3613	0.0000	3.9384	2.0000
27.6000	79.8681	65.2228	0.0000	3.9336	2.0000
27.7000	79.7011	65.0843	0.0000	3.9287	2.0000
27.8000	79.5340	64.9457	0.0000	3.9238	2.0000
27.9000	79.3669	64.8072	0.0000	3.9190	2.0000
28.0000	79.1998	64.6687	0.0000	3.9141	2.0000
28.1000	78.9546	64.4514	0.0000	3.9092	2.0000
28.2000	78.6480	64.1721	0.0000	3.9043	2.0000
28.3000	78.3414	63.8928	0.0000	3.8995	2.0000
28.4000	78.0348	63.6136	0.0000	3.8946	2.0000
28.5000	77.7282	63.3343	0.0000	3.8897	2.0000
28.6000	77.4216	63.0550	0.0000	3.8849	2.0000
28.7000	77.1150	62.7758	0.0000	3.8800	2.0000
28.8000	76.8084	62.4965	0.0000	3.8751	2.0000
28.9000	76.5018	62.2172	0.0000	3.8702	2.0000
29.0000	76.4487	62.4058	0.0000	3.8654	2.0000
29.1000	76.4437	62.6836	0.0000	3.8605	2.0000
29.2000	76.4388	62.9613	0.0000	3.8556	2.0000
29.3000	76.4339	63.2390	0.0000	3.8508	2.0000
29.4000	76.4289	63.5167	0.0000	3.8459	2.0000
29.5000	76.4240	63.7945	0.0000	3.8410	2.0000
29.6000	76.4191	64.0722	0.0000	3.8361	2.0000
29.7000	76.4142	64.3499	0.0000	3.8313	2.0000
29.8000	76.4656	64.5763	0.0000	3.8264	2.0000
29.9000	76.5949	64.7318	0.0000	3.8215	2.0000
30.0000	76.7242	64.8872	0.0000	3.8167	2.0000
30.1000	76.8535	65.0427	0.0000	3.8116	2.0000
30.2000	76.9828	65.1981	0.0000	3.8060	2.0000
30.3000	77.1120	65.3536	0.0000	3.8005	2.0000
30.4000	77.2413	65.5091	0.0000	3.7949	2.0000
30.5000	77.3706	65.6645	0.0000	3.7894	2.0000
30.6000	77.4999	65.8200	0.0000	3.7838	2.0000
30.7000	77.7566	65.8788	0.0000	3.7783	2.0000
30.8000	77.8486	65.8617	0.0000	3.7727	2.0000
30.9000	77.9406	65.8447	0.0000	3.7671	2.0000
31.0000	78.0327	65.8276	0.0000	3.7616	2.0000
31.1000	78.1247	65.8105	0.0000	3.7560	2.0000
31.2000	78.2167	65.7934	0.0000	3.7505	2.0000
31.3000	78.3087	65.7763	0.0000	3.7449	2.0000
31.4000	78.4008	65.7592	0.0000	3.7394	2.0000
31.5000	78.4928	65.7421	0.0000	3.7338	2.0000
31.6000	78.5848	65.6792	0.0000	3.7283	2.0000
31.7000	78.6768	65.5832	0.0000	3.7227	2.0000
31.8000	78.7689	65.4872	0.0000	3.7171	2.0000
31.9000	78.8609	65.3912	0.0000	3.7116	2.0000
32.0000	78.9529	65.2952	0.0000	3.7060	2.0000
32.1000	79.0449	65.1992	0.0000	3.7005	2.0000
32.2000	79.1370	65.1032	0.0000	3.6949	2.0000
32.3000	79.2290	65.0072	0.0000	3.6894	2.0000
32.4000	79.3210	64.9303	0.0000	3.6838	2.0000
32.5000	79.4130	65.3119	0.0000	3.6783	2.0000
32.6000	79.5051	65.6934	0.0000	3.6727	2.0000
32.7000	79.5971	66.0749	0.0000	3.6672	2.0000
32.8000	79.6891	66.4565	0.0000	3.6616	2.0000
32.9000	79.7812	66.8380	0.0000	3.6560	2.0000
33.0000	79.8732	67.2195	0.0000	3.6505	2.0000
33.1000	79.9652	67.6011	0.0000	3.6449	2.0000
33.2000	80.0572	67.9826	0.0000	3.6394	2.0000
33.3000	80.1493	68.2627	0.0000	3.6468	2.0000
33.4000	80.2413	68.4631	0.0000	3.6628	2.0000
33.5000	80.3333	68.6634	0.0000	3.6788	2.0000
33.6000	80.4253	68.8638	0.0000	3.6949	2.0000
33.7000	80.5174	69.0641	0.0000	3.7109	2.0000
33.8000	80.6094	69.2645	0.0000	3.7269	2.0000
33.9000	80.7014	69.4648	0.0000	3.7429	2.0000
34.0000	80.7934	69.6652	0.0000	3.7590	2.0000
34.1000	80.8855	69.8655	0.0000	3.7750	2.0000
34.2000	80.9775	70.0053	0.0000	3.7910	2.0000
34.3000	80.9306	69.8688	0.0000	3.8071	2.0000
34.4000	80.8838	69.7323	0.0000	3.8231	2.0000
34.5000	80.8370	69.5959	0.0000	3.8391	2.0000
34.6000	80.7901	69.4594	0.0000	3.8551	2.0000
34.7000	80.7433	69.3230	0.0000	3.8712	2.0000
34.8000	80.6964	69.1865	0.0000	3.8872	2.0000
34.9000	80.6496	69.0500	0.0000	3.9032	2.0000
35.0000	80.6028	68.9136	0.0000	3.9193	2.0000
35.1000	80.5559	68.7771	0.0000	3.9353	2.0000
35.2000	80.4015	68.5733	0.0000	3.9513	2.0000
35.3000	80.2377	68.3636	0.0000	3.9673	2.0000
35.4000	80.0739	68.1540	0.0000	3.9834	2.0000
35.5000	79.9102	67.9443	0.0000	3.9994	2.0000
35.6000	79.7464	67.7346	0.0000	4.0154	2.0000
35.7000	79.5826	67.5250	0.0000	4.0315	2.0000
35.8000	79.4188	67.3153	0.0000	4.0475	2.0000
35.9000	79.2551	67.1056	0.0000	4.0635	2.0000
36.0000	79.0913	66.8960	0.0000	4.0795	2.0000
36.1000	78.9976	66.7630	0.0000	4.0956	2.0000
36.2000	78.9068	66.6333	0.0000	4.1116	2.0000
36.3000	78.8160	66.5036	0.0000	4.1276	2.0000
36.4000	78.7252	66.3739	0.0000	4.1437	2.0000
36.5000	78.6345	66.2442	0.0000	4.1597	2.0000
36.6000	78.5437	66.1145	0.0000	4.1757	2.0000
36.7000	78.4529	65.9848	0.0000	4.1917	2.0000
36.8000	78.3621	65.8551	0.0000	4.2078	2.0000
36.9000	78.4870	65.8896	0.0000	4.2238	2.0000
37.0000	78.7332	66.0165	0.0000	4.2398	2.0000
37.1000	78.9794	66.1434	0.0000	4.2559	2.0000
37.2000	79.2256	66.2703	0.0000	4.2719	2.0000
37.3000	79.4718	66.3972	0.0000	4.2879	2.0000
37.4000	79.7180	66.5241	0.0000	4.2986	2.0000
37.5000	79.9642	66.6510	0.0000	4.3013	2.0000
37.6000	80.2104	66.7780	0.0000	4.3041	2.0000
37.7000	80.4123	66.8906	0.0000	4.3068	2.0000
37.8000	80.3819	66.9283	0.0000	4.3095	2.0000
37.9000	80.3515	66.9660	0.0000	4.3122	2.0000
38.0000	80.3211	67.0036	0.0000	4.3149	2.0000
38.1000	80.2907	67.0413	0.0000	4.3176	2.0000
38.2000	80.2603	67.0790	0.0000	4.3204	2.0000
38.3000	80.2298	67.1167	0.0000	4.3231	2.0000
38.4000	80.1994	67.1544	0.0000	4.3258	2.0000
38.5000	80.1690	67.1921	0.0000	4.3285	2.0000
38.6000	80.1089	67.2069	0.0000	4.3312	2.0000
38.7000	79.9856	67.1733	0.0000	4.3339	2.0000
38.8000	79.8623	67.1397	0.0000	4.3367	2.0000
38.9000	79.7390	67.1061	0.0000	4.3394	2.0000
39.0000	79.6157	67.0725	0.0000	4.3421	2.0000
39.1000	79.4925	67.0389	0.0000	4.3448	2.0000
39.2000	79.3692	67.0052	0.0000	4.3475	2.0000
39.3000	79.2459	66.9716	0.0000	4.3502	2.0000
39.4000	79.1226	66.9380	0.0000	4.3530	2.0000
39.5000	79.0475	66.9918	0.0000	4.3557	2.0000
39.6000	78.9911	67.0796	0.0000	4.3584	2.0000
39.7000	78.9348	67.1673	0.0000	4.3611	2.0000
39.8000	78.8784	67.2551	0.0000	4.3638	2.0000
39.9000	78.8220	67.3429	0.0000	4.3666	2.0000
40.0000	78.7656	67.4307	0.0000	4.3693	2.0000
40.1000	78.7093	67.5184	0.0000	4.3720	2.0000
40.2000	78.6529	67.6062	0.0000	4.3747	2.0000
40.3000	78.6600	67.6169	0.0000	4.3774	2.0000
40.4000	78.7359	67.5442	0.0000	4.3801	2.0000
40.5000	78.8118	67.4715	0.0000	4.3829	2.0000
40.6000	78.8877	67.3988	0.0000	4.3856	2.0000
40.7000	78.9636	67.3261	0.0000	4.3883	2.0000
40.8000	79.0394	67.2534	0.0000	4.3910	2.0000
40.9000	79.1153	67.1806	0.0000	4.3937	2.0000
41.0000	79.1912	67.1079	0.0000	4.3964	2.0000
41.1000	79.3429	67.1579	0.0000	4.3992	2.0000
41.2000	79.5702	67.3305	0.0000	4.4019	2.0000
41.3000	79.7976	67.5031	0.0000	4.4046	2.0000
41.4000	80.0250	67.6758	0.0000	4.4073	2.0000
41.5000	80.2523	67.8484	0.0000	4.4087	2.0000
41.6000	80.4797	68.0210	0.0000	4.4002	2.0000
41.7000	80.7071	68.1936	0.0000	4.3918	2.0000
41.8000	80.9344	68.3663	0.0000	4.3833	2.0000
41.9000	81.1182	68.5048	0.0000	4.3748	2.0000
42.0000	81.0729	68.4641	0.0000	4.3663	2.0000
42.1000	81.0277	68.4235	0.0000	4.3579	2.0000
42.2000	80.9824	68.3828	0.0000	4.3494	2.0000
42.3000	80.9372	68.3422	0.0000	4.3409	2.0000
42.4000	80.8919	68.3015	0.0000	4.3325	2.0000
42.5000	80.8466	68.2609	0.0000	4.3240	2.0000
42.6000	80.8014	68.2202	0.0000	4.3155	2.0000
42.7000	80.7561	68.1796	0.0000	4.3071	2.0000
42.8000	80.6898	68.1319	0.0000	4.2986	2.0000
42.9000	80.5634	68.0643	0.0000	4.2901	2.0000
43.0000	80.4371	67.9967	0.0000	4.2817	2.0000
43.1000	80.3107	67.9292	0.0000	4.2732	2.0000
43.2000	80.1844	67.8616	0.0000	4.2647	2.0000
43.3000	80.0581	67.7940	0.0000	4.2562	2.0000
43.4000	79.9317	67.7264	0.0000	4.2478	2.0000
43.5000	79.8054	67.6588	0.0000	4.2393	2.0000
43.6000	79.6790	67.5912	0.0000	4.2308	2.0000
43.7000	79.5498	67.3911	0.0000	4.2224	2.0000
43.8000	79.4171	67.0221	0.0000	4.2139	2.0000
43.9000	79.2843	66.6532	0.0000	4.2054	2.0000
44.0000	79.1516	66.2842	0.0000	4.1970	2.0000
44.1000	79.0188	65.9153	0.0000	4.1885	2.0000
44.2000	78.8861	65.5463	0.0000	4.1800	2.0000
44.3000	78.7533	65.1774	0.0000	4.1716	2.0000
44.4000	78.6205	64.8084	0.0000	4.1631	2.0000
44.5000	78.5229	64.5095	0.0000	4.1546	2.0000
44.6000	78.7416	64.8403	0.0000	4.1462	2.0000
44.7000	78.9602	65.1711	0.0000	4.1377	2.0000
44.8000	79.1788	65.5020	0.0000	4.1292	2.0000
44.9000	79.3975	65.8328	0.0000	4.1207	2.0000
45.0000	79.6161	66.1637	0.0000	4.1123	2.0000
45.1000	79.8347	66.4945	0.0000	4.1038	2.0000
45.2000	80.0534	66.8254	0.0000	4.0953	2.0000
45.3000	80.2720	67.1562	0.0000	4.0869	2.0000
45.4000	80.4463	67.2432	0.0000	4.0872	2.0000
45.5000	80.6177	67.3146	0.0000	4.0897	2.0000
45.6000	80.7891	67.3861	0.0000	4.0922	2.0000
45.7000	80.9606	67.4575	0.0000	4.0947	2.0000
45.8000	81.1320	67.5289	0.0000	4.0972	2.0000
45.9000	81.3035	67.6003	0.0000	4.0998	2.0000
46.0000	81.4749	67.6718	0.0000	4.1023	2.0000
46.1000	81.6463	67.7432	0.0000	4.1048	2.0000
46.2000	81.8028	67.8063	0.0000	4.1073	2.0000
46.3000	81.7868	67.7739	0.0000	4.1098	2.0000
46.4000	81.7708	67.7415	0.0000	4.1123	2.0000
46.5000	81.7548	67.7090	0.0000	4.1148	2.0000
46.6000	81.7388	67.6766	0.0000	4.1174	2.0000
46.7000	81.7228	67.6442	0.0000	4.1199	2.0000
46.8000	81.7069	67.6118	0.0000	4.1224	2.0000
46.9000	81.6909	67.5793	0.0000	4.1249	2.0000
47.0000	81.6749	67.5469	0.0000	4.1274	2.0000
47.1000	81.6579	67.5132	0.0000	4.1299	2.0000
47.2000	81.5910	67.4170	0.0000	4.1324	2.0000
47.3000	81.5241	67.3209	0.0000	4.1350	2.0000
47.4000	81.4572	67.2247	0.0000	4.1375	2.0000
47.5000	81.3904	67.1285	0.0000	4.1400	2.0000
47.6000	81.3235	67.0324	0.0000	4.1425	2.0000
47.7000	81.2566	66.9362	0.0000	4.1450	2.0000
47.8000	81.1897	66.8401	0.0000	4.1475	2.0000
47.9000	81.1228	66.7439	0.0000	4.1500	2.0000
48.0000	81.0560	66.6477	0.0000	4.1526	2.0000
48.1000	80.8685	66.4224	0.0000	4.1551	2.0000
48.2000	80.6810	66.1971	0.0000	4.1576	2.0000
48.3000	80.4935	65.9718	0.0000	4.1601	2.0000
48.4000	80.3061	65.7464	0.0000	4.1626	2.0000
48.5000	80.1186	65.5211	0.0000	4.1651	2.0000
48.6000	79.9311	65.2958	0.0000	4.1676	2.0000
48.7000	79.7436	65.0705	0.0000	4.1702	2.0000
48.8000	79.5562	64.8452	0.0000	4.1727	2.0000
48.9000	79.5152	64.8150	0.0000	4.1752	2.0000
49.0000	79.7131	65.1032	0.0000	4.1777	2.0000
49.1000	79.9111	65.3914	0.0000	4.1802	2.0000
49.2000	80.1090	65.6796	0.0000	4.1827	2.0000
49.3000	80.3070	65.9677	0.0000	4.1852	2.0000
49.4000	80.5050	66.2559	0.0000	4.1877	2.0000
49.5000	80.7029	66.5441	0.0000	4.1903	2.0000
49.6000	80.9009	66.8323	0.0000	4.1925	2.0000
49.7000	81.0988	67.1205	0.0000	4.1920	2.0000
49.8000	81.1979	67.2227	0.0000	4.1914	2.0000
49.9000	81.2908	67.3130	0.0000	4.1909	2.0000
50.0000	81.3836	67.4033	0.0000	4.1903	2.0000
50.1000	81.4764	67.4936	0.0000	4.1897	2.0000
50.2000	81.5692	67.5839	0.0000	4.1892	2.0000
50.3000	81.6620	67.6742	0.0000	4.1886	2.0000
50.4000	81.7548	67.7645	0.0000	4.1881	2.0000
50.5000	81.8476	67.8548	0.0000	4.1875	2.0000
50.6000	81.9299	67.9330	0.0000	4.1869	2.0000
50.7000	81.7604	67.7192	0.0000	4.1864	2.0000
50.8000	81.5909	67.5055	0.0000	4.1858	2.0000
50.9000	81.4213	67.2918	0.0000	4.1853	2.0000
51.0000	81.2518	67.0781	0.0000	4.1847	2.0000
51.1000	81.0823	66.8643	0.0000	4.1842	2.0000
51.2000	80.9128	66.6506	0.0000	4.1836	2.0000
51.3000	80.7433	66.4369	0.0000	4.1830	2.0000
51.4000	80.5738	66.2232	0.0000	4.1825	2.0000
51.5000	80.3968	66.0232	0.0000	4.1819	2.0000
51.6000	80.1528	65.9471	0.0000	4.1814	2.0000
51.7000	79.9087	65.8710	0.0000	4.1808	2.0000
51.8000	79.6646	65.7949	0.0000	4.1802	2.0000
51.9000	79.4206	65.7187	0.0000	4.1797	2.0000
52.0000	79.1765	65.6426	0.0000	4.1791	2.0000
52.1000	78.9324	65.5665	0.0000	4.1786	2.0000
52.2000	78.6883	65.4904	0.0000	4.1780	2.0000
52.3000	78.4443	65.4143	0.0000	4.1775	2.0000
52.4000	78.2771	65.3141	0.0000	4.1769	2.0000
52.5000	78.2466	65.1713	0.0000	4.1763	2.0000
52.6000	78.2162	65.0284	0.0000	4.1758	2.0000
52.7000	78.1857	64.8855	0.0000	4.1752	2.0000
52.8000	78.1553	64.7426	0.0000	4.1747	2.0000
52.9000	78.1248	64.5998	0.0000	4.1741	2.0000
53.0000	78.0944	64.4569	0.0000	4.1735	2.0000
53.1000	78.0639	64.3140	0.0000	4.1730	2.0000
53.2000	78.0809	64.2793	0.0000	4.1724	2.0000
53.3000	78.3141	64.7374	0.0000	4.1719	2.0000
53.4000	78.5472	65.1954	0.0000	4.1713	2.0000
53.5000	78.7804	65.6534	0.0000	4.1707	2.0000
53.6000	79.0136	66.1114	0.0000	4.1702	2.0000
53.7000	79.2468	66.5694	0.0000	4.1696	2.0000
53.8000	79.4799	67.0274	0.0000	4.1708	2.0000
53.9000	79.7131	67.4854	0.0000	4.1729	2.0000
54.0000	79.9463	67.9435	0.0000	4.1749	2.0000
54.1000	80.1007	68.1256	0.0000	4.1770	2.0000
54.2000	80.2245	68.2005	0.0000	4.1790	2.0000
54.3000	80.3483	68.2754	0.0000	4.1810	2.0000
54.4000	80.4721	68.3502	0.0000	4.1831	2.0000
54.5000	80.5959	68.4251	0.0000	4.1851	2.0000
54.6000	80.7197	68.5000	0.0000	4.1872	2.0000
54.7000	80.8435	68.5748	0.0000	4.1892	2.0000
54.8000	80.9672	68.6497	0.0000	4.1912	2.0000
54.9000	81.1067	68.7045	0.0000	4.1933	2.0000
55.0000	81.2863	68.7075	0.0000	4.1953	2.0000
55.1000	81.4660	68.7106	0.0000	4.1974	2.0000
55.2000	81.6456	68.7136	0.0000	4.1994	2.0000
55.3000	81.8252	68.7167	0.0000	4.2014	2.0000
55.4000	82.0049	68.7198	0.0000	4.2035	2.0000
55.5000	82.1845	68.7228	0.0000	4.2055	2.0000
55.6000	82.3642	68.7259	0.0000	4.2076	2.0000
55.7000	82.5438	68.7289	0.0000	4.2096	2.0000
55.8000	82.5624	68.5599	0.0000	4.2116	2.0000
55.9000	82.5457	68.3530	0.0000	4.2137	2.0000
56.0000	82.5290	68.1461	0.0000	4.2157	2.0000
56.1000	82.5123	67.9393	0.0000	4.2178	2.0000
56.2000	82.4956	67.7324	0.0000	4.2198	2.0000
56.3000	82.4788	67.5255	0.0000	4.2219	2.0000
56.4000	82.4621	67.3187	0.0000	4.2239	2.0000
56.5000	82.4454	67.1118	0.0000	4.2259	2.0000
56.6000	82.4556	67.0115	0.0000	4.2280	2.0000
56.7000	82.5422	67.2143	0.0000	4.2300	2.0000
56.8000	82.6289	67.4171	0.0000	4.2321	2.0000
56.9000	82.7156	67.6199	0.0000	4.2341	2.0000
57.0000	82.8022	67.8228	0.0000	4.2361	2.0000
57.1000	82.8889	68.0256	0.0000	4.2382	2.0000
57.2000	82.9756	68.2284	0.0000	4.2402	2.0000
57.3000	83.0622	68.4312	0.0000	4.2423	2.0000
57.4000	83.1489	68.6341	0.0000	4.2443	2.0000
57.5000	83.2269	68.6275	0.0000	4.2463	2.0000
57.6000	83.3047	68.6166	0.0000	4.2484	2.0000
57.7000	83.3826	68.6058	0.0000	4.2510	2.0000
57.8000	83.4604	68.5949	0.0000	4.2552	2.0000
57.9000	83.5382	68.5841	0.0000	4.2594	2.0000
58.0000	83.6160	68.5732	0.0000	4.2636	2.0000
58.1000	83.6939	68.5624	0.0000	4.2678	2.0000
58.2000	83.7717	68.5515	0.0000	4.2720	2.0000
58.3000	83.8326	68.5318	0.0000	4.2762	2.0000
58.4000	83.6284	68.3723	0.0000	4.2804	2.0000
58.5000	83.4243	68.2128	0.0000	4.2846	2.0000
58.6000	83.2202	68.0534	0.0000	4.2888	2.0000
58.7000	83.0160	67.8939	0.0000	4.2930	2.0000
58.8000	82.8119	67.7344	0.0000	4.2972	2.0000
58.9000	82.6078	67.5750	0.0000	4.3014	2.0000
59.0000	82.4036	67.4155	0.0000	4.3056	2.0000
59.1000	82.1995	67.2560	0.0000	4.3098	2.0000
59.2000	81.9928	67.0992	0.0000	4.3140	2.0000
59.3000	81.7456	66.9838	0.0000	4.3182	2.0000
59.4000	81.4984	66.8685	0.0000	4.3224	2.0000
59.5000	81.2512	66.7531	0.0000	4.3266	2.0000
59.6000	81.0040	66.6378	0.0000	4.3308	2.0000
59.7000	80.7567	66.5224	0.0000	4.3350	2.0000
59.8000	80.5095	66.4071	0.0000	4.3392	2.0000
59.9000	80.2623	66.2917	0.0000	4.3434	2.0000
60.0000	80.0151	66.1764	0.0000	4.3476	2.0000
60.1000	79.7690	66.0342	0.0000	4.3518	2.0000
60.2000	79.5238	65.8709	0.0000	4.3560	2.0000
60.3000	79.2786	65.7076	0.0000	4.3602	2.0000
60.4000	79.0334	65.5443	0.0000	4.3644	2.0000
60.5000	78.7882	65.3810	0.0000	4.3686	2.0000
60.6000	78.5430	65.2177	0.0000	4.3728	2.0000
60.7000	78.2978	65.0544	0.0000	4.3770	2.0000
60.8000	78.0526	64.8911	0.0000	4.3812	2.0000
60.9000	77.9409	64.8990	0.0000	4.3854	2.0000
61.0000	78.0668	65.2111	0.0000	4.3896	2.0000
61.1000	78.1926	65.5232	0.0000	4.3938	2.0000
61.2000	78.3185	65.8353	0.0000	4.3980	2.0000
61.3000	78.4443	66.1474	0.0000	4.4022	2.0000
61.4000	78.5702	66.4595	0.0000	4.4064	2.0000
61.5000	78.6960	66.7717	0.0000	4.4106	2.0000
61.6000	78.8219	67.0838	0.0000	4.4148	2.0000
61.7000	79.0297	67.4779	0.0000	4.4190	2.0000
61.8000	79.3194	67.9541	0.0000	4.4232	2.0000
61.9000	79.6092	68.4302	0.0000	4.4274	2.0000
62.0000	79.8989	68.9064	0.0000	4.4316	2.0000
62.1000	80.1887	69.3826	0.0000	4.4358	2.0000
62.2000	80.4785	69.8587	0.0000	4.4400	2.0000
62.3000	80.7682	70.3349	0.0000	4.4442	2.0000
62.4000	81.0580	70.8110	0.0000	4.4484	2.0000
62.5000	81.3400	71.2597	0.0000	4.4526	2.0000
62.6000	81.6208	71.7039	0.0000	4.4568	2.0000
62.7000	81.9016	72.1480	0.0000	4.4610	2.0000
62.8000	82.1823	72.5922	0.0000	4.4652	2.0000
62.9000	82.4631	73.0364	0.0000	4.4694	2.0000
63.0000	82.7439	73.4806	0.0000	4.4736	2.0000
63.1000	83.0247	73.9247	0.0000	4.4778	2.0000
63.2000	83.2478	73.9183	0.0000	4.4820	2.0000
63.3000	83.4219	73.5279	0.0000	4.4862	2.0000
63.4000	83.5959	73.1376	0.0000	4.4904	2.0000
63.5000	83.7700	72.7472	0.0000	4.4946	2.0000
63.6000	83.9440	72.3568	0.0000	4.4988	2.0000
63.7000	84.1181	71.9665	0.0000	4.5030	2.0000
63.8000	84.2921	71.5761	0.0000	4.5073	2.0000
63.9000	84.3659	71.2482	0.0000	4.5115	2.0000
64.0000	84.2449	71.0416	0.0000	4.5157	2.0000
64.1000	84.1239	70.8350	0.0000	4.5199	2.0000
64.2000	84.0030	70.6285	0.0000	4.5241	2.0000
64.3000	83.8820	70.4219	0.0000	4.5283	2.0000
64.4000	83.7610	70.2153	0.0000	4.5325	2.0000
64.5000	83.6400	70.0087	0.0000	4.5367	2.0000
64.6000	83.5191	69.8021	0.0000	4.5409	2.0000
64.7000	83.2509	69.3586	0.0000	4.5451	2.0000
64.8000	82.9664	68.8889	0.0000	4.5493	2.0000
64.9000	82.6818	68.4191	0.0000	4.5535	2.0000
65.0000	82.3973	67.9494	0.0000	4.5577	2.0000
65.1000	82.1128	67.4796	0.0000	4.5619	2.0000
65.2000	81.8283	67.0099	0.0000	4.5661	2.0000
65.3000	81.5437	66.5401	0.0000	4.5703	2.0000
65.4000	81.2745	66.1266	0.0000	4.5745	2.0000
65.5000	81.0665	65.9378	0.0000	4.5787	2.0000
65.6000	80.8585	65.7490	0.0000	4.5829	2.0000
65.7000	80.6505	65.5602	0.0000	4.5871	2.0000
65.8000	80.4425	65.3715	0.0000	4.5913	2.0000
65.9000	80.2345	65.1827	0.0000	4.5955	2.0000
66.0000	80.0265	64.9939	0.0000	4.5997	2.0000
66.1000	79.8185	64.8051	0.0000	4.6039	2.0000
66.2000	79.8264	64.8805	0.0000	4.6081	2.0000
66.3000	79.9359	65.0802	0.0000	4.6123	2.0000
66.4000	80.0453	65.2799	0.0000	4.6165	2.0000
66.5000	80.1548	65.4796	0.0000	4.6207	2.0000
66.6000	80.2643	65.6793	0.0000	4.6249	2.0000
66.7000	80.3738	65.8790	0.0000	4.6291	2.0000
66.8000	80.4833	66.0787	0.0000	4.6333	2.0000
66.9000	80.5928	66.2785	0.0000	4.6308	2.0000
67.0000	80.3316	66.1206	0.0000	4.6251	2.0000
67.1000	80.0629	65.9555	0.0000	4.6195	2.0000
67.2000	79.7942	65.7903	0.0000	4.6138	2.0000
67.3000	79.5254	65.6252	0.0000	4.6082	2.0000
67.4000	79.2567	65.4600	0.0000	4.6025	2.0000
67.5000	78.9880	65.2949	0.0000	4.5969	2.0000
67.6000	78.7193	65.1297	0.0000	4.5912	2.0000
67.7000	78.4505	64.9646	0.0000	4.5856	2.0000
67.8000	78.0883	64.6810	0.0000	4.5799	2.0000
67.9000	77.6820	64.3417	0.0000	4.5743	2.0000
68.0000	77.2758	64.0023	0.0000	4.5686	2.0000
68.1000	76.8695	63.6630	0.0000	4.5630	2.0000
68.2000	76.4633	63.3237	0.0000	4.5573	2.0000
68.3000	76.0570	62.9844	0.0000	4.5517	2.0000
68.4000	75.6508	62.6450	0.0000	4.5460	2.0000
68.5000	75.2445	62.3057	0.0000	4.5404	2.0000
68.6000	75.0084	62.1597	0.0000	4.5347	2.0000
68.7000	74.8857	62.1426	0.0000	4.5291	2.0000
68.8000	74.7630	62.1255	0.0000	4.5234	2.0000
68.9000	74.6403	62.1084	0.0000	4.5178	2.0000
69.0000	74.5176	62.0913	0.0000	4.5121	2.0000
69.1000	74.3950	62.0741	0.0000	4.5065	2.0000
69.2000	74.2723	62.0570	0.0000	4.5009	2.0000
69.3000	74.1496	62.0399	0.0000	4.4952	2.0000
69.4000	74.1589	62.1568	0.0000	4.4896	2.0000
69.5000	74.2013	62.3071	0.0000	4.4839	2.0000
69.6000	74.2437	62.4575	0.0000	4.4783	2.0000
69.7000	74.2861	62.6078	0.0000	4.4726	2.0000
69.8000	74.3285	62.7582	0.0000	4.4670	2.0000
69.9000	74.3708	62.9086	0.0000	4.4613	2.0000
70.0000	74.4132	63.0589	0.0000	4.4567	2.0000
70.1000	74.4556	63.2093	0.0000	4.4601	2.0000
70.2000	74.4196	63.2843	0.0000	4.4634	2.0000
70.3000	74.2839	63.2634	0.0000	4.4667	2.0000
70.4000	74.1482	63.2425	0.0000	4.4700	2.0000
70.5000	74.0125	63.2215	0.0000	4.4733	2.0000
70.6000	73.8768	63.2006	0.0000	4.4766	2.0000
70.7000	73.7411	63.1797	0.0000	4.4800	2.0000
70.8000	73.6054	63.1588	0.0000	4.4833	2.0000
70.9000	73.4697	63.1379	0.0000	4.4866	2.0000
71.0000	73.3340	63.1170	0.0000	4.4899	2.0000
71.1000	73.1745	63.0148	0.0000	4.4932	2.0000
71.2000	72.9948	62.8433	0.0000	4.4965	2.0000
71.3000	72.8151	62.6719	0.0000	4.4999	2.0000
71.4000	72.6354	62.5004	0.0000	4.5032	2.0000
71.5000	72.4557	62.3290	0.0000	4.5065	2.0000
71.6000	72.2759	62.1575	0.0000	4.5098	2.0000
71.7000	72.0962	61.9861	0.0000	4.5131	2.0000
71.8000	71.9165	61.8146	0.0000	4.5164	2.0000
71.9000	71.8568	61.8303	0.0000	4.5198	2.0000
72.0000	72.0772	62.2825	0.0000	4.5231	2.0000
72.1000	72.2975	62.7348	0.0000	4.5264	2.0000
72.2000	72.5179	63.1870	0.0000	4.5297	2.0000
72.3000	72.7383	63.6393	0.0000	4.5330	2.0000
72.4000	72.9586	64.0915	0.0000	4.5363	2.0000
72.5000	73.1790	64.5438	0.0000	4.5397	2.0000
72.6000	73.3993	64.9960	0.0000	4.5430	2.0000
72.7000	73.6166	65.3785	0.0000	4.5463	2.0000
72.8000	73.8259	65.5814	0.0000	4.5496	2.0000
72.9000	74.0352	65.7843	0.0000	4.5529	2.0000
73.0000	74.2445	65.9872	0.0000	4.5493	2.0000
73.1000	74.4538	66.1901	0.0000	4.5280	2.0000
73.2000	74.6631	66.3930	0.0000	4.5066	2.0000
73.3000	74.8724	66.5959	0.0000	4.4853	2.0000
73.4000	75.0818	66.7988	0.0000	4.4639	2.0000
73.5000	75.2911	67.0017	0.0000	4.4425	2.0000
73.6000	75.4028	67.0078	0.0000	4.4212	2.0000
73.7000	75.5012	66.9870	0.0000	4.3998	2.0000
73.8000	75.5996	66.9662	0.0000	4.3785	2.0000
73.9000	75.6980	66.9454	0.0000	4.3571	2.0000
74.0000	75.7964	66.9246	0.0000	4.3358	2.0000
74.1000	75.8948	66.9038	0.0000	4.3144	2.0000
74.2000	75.9932	66.8830	0.0000	4.2931	2.0000
74.3000	76.0916	66.8622	0.0000	4.2717	2.0000
74.4000	76.1867	66.8186	0.0000	4.2503	2.0000
74.5000	76.2755	66.7307	0.0000	4.2290	2.0000
74.6000	76.3642	66.6428	0.0000	4.2076	2.0000
74.7000	76.4530	66.5549	0.0000	4.1863	2.0000
74.8000	76.5417	66.4670	0.0000	4.1649	2.0000
74.9000	76.6305	66.3791	0.0000	4.1436	2.0000
75.0000	76.7193	66.2912	0.0000	4.1222	2.0000
75.1000	76.8080	66.2032	0.0000	4.1008	2.0000
75.2000	76.8968	66.1153	0.0000	4.0795	2.0000
75.3000	77.0622	66.0435	0.0000	4.0581	2.0000
75.4000	77.2307	65.9723	0.0000	4.0368	2.0000
75.5000	77.3993	65.9011	0.0000	4.0154	2.0000
75.6000	77.5679	65.8299	0.0000	3.9941	2.0000
75.7000	77.7364	65.7588	0.0000	3.9727	2.0000
75.8000	77.9050	65.6876	0.0000	3.9513	2.0000
75.9000	78.0736	65.6164	0.0000	3.9300	2.0000
76.0000	78.2421	65.5452	0.0000	3.9263	2.0000
76.1000	78.3952	65.4678	0.0000	3.9282	2.0000
76.2000	78.3062	65.2921	0.0000	3.9301	2.0000
76.3000	78.2172	65.1164	0.0000	3.9319	2.0000
76.4000	78.1282	64.9407	0.0000	3.9338	2.0000
76.5000	78.0392	64.7650	0.0000	3.9357	2.0000
76.6000	77.9502	64.5893	0.0000	3.9376	2.0000
76.7000	77.8612	64.4136	0.0000	3.9395	2.0000
76.8000	77.7722	64.2379	0.0000	3.9413	2.0000
76.9000	77.6832	64.0622	0.0000	3.9432	2.0000
77.0000	77.5942	63.8865	0.0000	3.9451	2.0000
77.1000	77.3853	63.8350	0.0000	3.9470	2.0000
77.2000	77.1688	63.7915	0.0000	3.9489	2.0000
77.3000	76.9523	63.7480	0.0000	3.9507	2.0000
77.4000	76.7357	63.7045	0.0000	3.9526	2.0000
77.5000	76.5192	63.6609	0.0000	3.9545	2.0000
77.6000	76.3027	63.6174	0.0000	3.9564	2.0000
77.7000	76.0862	63.5739	0.0000	3.9583	2.0000
77.8000	75.8696	63.5303	0.0000	3.9601	2.0000
77.9000	75.8747	63.5910	0.0000	3.9620	2.0000
78.0000	76.0155	63.7156	0.0000	3.9639	2.0000
78.1000	76.1563	63.8402	0.0000	3.9658	2.0000
78.2000	76.2971	63.9648	0.0000	3.9677	2.0000
78.3000	76.4379	64.0893	0.0000	3.9695	2.0000
78.4000	76.5787	64.2139	0.0000	3.9714	2.0000
78.5000	76.7196	64.3385	0.0000	3.9733	2.0000
78.6000	76.8604	64.4631	0.0000	3.9752	2.0000
78.7000	76.9750	64.6179	0.0000	3.9771	2.0000
78.8000	77.0689	64.7967	0.0000	3.9789	2.0000
78.9000	77.1628	64.9754	0.0000	3.9845	2.0000
79.0000	77.2568	65.1541	0.0000	4.0016	2.0000
79.1000	77.3507	65.3328	0.0000	4.0187	2.0000
79.2000	77.4447	65.5116	0.0000	4.0359	2.0000
79.3000	77.5386	65.6903	0.0000	4.0530	2.0000
79.4000	77.6325	65.8690	0.0000	4.0701	2.0000
79.5000	77.7076	66.0152	0.0000	4.0873	2.0000
79.6000	77.6969	66.0135	0.0000	4.1044	2.0000
79.7000	77.6861	66.0118	0.0000	4.1216	2.0000
79.8000	77.6753	66.0101	0.0000	4.1387	2.0000
79.9000	77.6646	66.0083	0.0000	4.1558	2.0000
80.0000	77.6538	66.0066	0.0000	4.1730	2.0000
80.1000	77.6431	66.0049	0.0000	4.1901	2.0000
80.2000	77.6323	66.0032	0.0000	4.2072	2.0000
80.3000	77.6215	66.0015	0.0000	4.2244	2.0000
80.4000	77.6308	66.0516	0.0000	4.2415	2.0000
80.5000	77.6503	66.1285	0.0000	4.2586	2.0000
80.6000	77.6698	66.2053	0.0000	4.2758	2.0000
80.7000	77.6894	66.2822	0.0000	4.2929	2.0000
80.8000	77.7089	66.3591	0.0000	4.3100	2.0000
80.9000	77.7284	66.4360	0.0000	4.3272	2.0000
81.0000	77.7480	66.5128	0.0000	4.3443	2.0000
81.1000	77.7675	66.5897	0.0000	4.3614	2.0000
81.2000	77.7773	66.6075	0.0000	4.3786	2.0000
81.3000	77.7483	66.3889	0.0000	4.3957	2.0000
81.4000	77.7192	66.1704	0.0000	4.4128	2.0000
81.5000	77.6902	65.9518	0.0000	4.4300	2.0000
81.6000	77.6612	65.7333	0.0000	4.4471	2.0000
81.7000	77.6321	65.5147	0.0000	4.4642	2.0000
81.8000	77.6031	65.2962	0.0000	4.4814	2.0000
81.9000	77.5740	65.0776	0.0000	4.4985	2.0000
82.0000	77.5473	64.8652	0.0000	4.5156	2.0000
82.1000	77.6311	64.9507	0.0000	4.5328	2.0000
82.2000	77.7149	65.0363	0.0000	4.5499	2.0000
82.3000	77.7986	65.1219	0.0000	4.5670	2.0000
82.4000	77.8824	65.2075	0.0000	4.5842	2.0000
82.5000	77.9662	65.2930	0.0000	4.6013	2.0000
82.6000	78.0500	65.3786	0.0000	4.6184	2.0000
82.7000	78.1338	65.4642	0.0000	4.6356	2.0000
82.8000	78.2258	65.5553	0.0000	4.6527	2.0000
82.9000	78.3607	65.6751	0.0000	4.6699	2.0000
83.0000	78.4956	65.7949	0.0000	4.6870	2.0000
83.1000	78.6305	65.9147	0.0000	4.6967	2.0000
83.2000	78.7654	66.0345	0.0000	4.7014	2.0000
83.3000	78.9003	66.1543	0.0000	4.7062	2.0000
83.4000	79.0352	66.2741	0.0000	4.7110	2.0000
83.5000	79.1701	66.3939	0.0000	4.7157	2.0000
83.6000	79.3050	66.5137	0.0000	4.7205	2.0000
83.7000	79.2628	66.3464	0.0000	4.7252	2.0000
83.8000	79.1373	66.0439	0.0000	4.7300	2.0000
83.9000	79.0118	65.7415	0.0000	4.7347	2.0000
84.0000	78.8864	65.4391	0.0000	4.7395	2.0000
84.1000	78.7609	65.1366	0.0000	4.7442	2.0000
84.2000	78.6354	64.8342	0.0000	4.7490	2.0000
84.3000	78.5099	64.5318	0.0000	4.7537	2.0000
84.4000	78.3844	64.2294	0.0000	4.7585	2.0000
84.5000	78.2589	63.9269	0.0000	4.7632	2.0000
84.6000	78.0559	63.7497	0.0000	4.7680	2.0000
84.7000	77.8402	63.5928	0.0000	4.7727	2.0000
84.8000	77.6245	63.4359	0.0000	4.7775	2.0000
84.9000	77.4088	63.2790	0.0000	4.7823	2.0000
85.0000	77.1931	63.1221	0.0000	4.7870	2.0000
85.1000	76.9774	62.9652	0.0000	4.7918	2.0000
85.2000	76.7617	62.8083	0.0000	4.7965	2.0000
85.3000	76.5460	62.6514	0.0000	4.8013	2.0000
85.4000	76.3257	62.4865	0.0000	4.8060	2.0000
85.5000	76.0326	62.1950	0.0000	4.8108	2.0000
85.6000	75.7395	61.9035	0.0000	4.8155	2.0000
85.7000	75.4464	61.6119	0.0000	4.8203	2.0000
85.8000	75.1533	61.3204	0.0000	4.8250	2.0000
85.9000	74.8603	61.0289	0.0000	4.8298	2.0000
86.0000	74.5672	60.7374	0.0000	4.8345	2.0000
86.1000	74.2741	60.4459	0.0000	4.8393	2.0000
86.2000	73.9810	60.1544	0.0000	4.8440	2.0000
86.3000	73.9411	60.2646	0.0000	4.8488	2.0000
86.4000	74.0096	60.5470	0.0000	4.8536	2.0000
86.5000	74.0782	60.8294	0.0000	4.8583	2.0000
86.6000	74.1468	61.1118	0.0000	4.8631	2.0000
86.7000	74.2153	61.3942	0.0000	4.8678	2.0000
86.8000	74.2839	61.6766	0.0000	4.8726	2.0000
86.9000	74.3525	61.9590	0.0000	4.8773	2.0000
87.0000	74.4210	62.2414	0.0000	4.8821	2.0000
87.1000	74.7528	62.5656	0.0000	4.8868	2.0000
87.2000	75.1075	62.8935	0.0000	4.8916	2.0000
87.3000	75.4621	63.2214	0.0000	4.8963	2.0000
87.4000	75.8168	63.5492	0.0000	4.9011	2.0000
87.5000	76.1714	63.8771	0.0000	4.8964	2.0000
87.6000	76.5261	64.2049	0.0000	4.8774	2.0000
87.7000	76.8808	64.5328	0.0000	4.8584	2.0000
87.8000	77.2354	64.8607	0.0000	4.8395	2.0000
87.9000	77.4732	65.1594	0.0000	4.8205	2.0000
88.0000	77.6920	65.4535	0.0000	4.8016	2.0000
88.1000	77.9108	65.7475	0.0000	4.7826	2.0000
88.2000	78.1295	66.0415	0.0000	4.7636	2.0000
88.3000	78.3483	66.3355	0.0000	4.7447	2.0000
88.4000	78.5671	66.6296	0.0000	4.7257	2.0000
88.5000	78.7859	66.9236	0.0000	4.7068	2.0000
88.6000	79.0046	67.2176	0.0000	4.6878	2.0000
88.7000	79.1192	67.3297	0.0000	4.6689	2.0000
88.8000	79.1209	67.2446	0.0000	4.6499	2.0000
88.9000	79.1225	67.1595	0.0000	4.6309	2.0000
89.0000	79.1242	67.0744	0.0000	4.6120	2.0000
89.1000	79.1259	66.9893	0.0000	4.5930	2.0000
89.2000	79.1276	66.9042	0.0000	4.5741	2.0000
89.3000	79.1292	66.8191	0.0000	4.5551	2.0000
89.4000	79.1309	66.7340	0.0000	4.5361	2.0000
89.5000	79.1326	66.6489	0.0000	4.5172	2.0000
89.6000	79.0623	66.4657	0.0000	4.4982	2.0000
89.7000	78.9639	66.2445	0.0000	4.4793	2.0000
89.8000	78.8656	66.0232	0.0000	4.4603	2.0000
89.9000	78.7672	65.8019	0.0000	4.4414	2.0000
90.0000	78.6689	65.5807	0.0000	4.4224	2.0000
90.1000	78.5706	65.3594	0.0000	4.4034	2.0000
90.2000	78.4722	65.1382	0.0000	4.3845	2.0000
90.3000	78.3739	64.9169	0.0000	4.3655	2.0000
90.4000	78.3173	64.7472	0.0000	4.3466	2.0000
90.5000	78.4507	64.8126	0.0000	4.3276	2.0000
90.6000	78.5840	64.8780	0.0000	4.3086	2.0000
90.7000	78.7174	64.9434	0.0000	4.2897	2.0000
90.8000	78.8508	65.0088	0.0000	4.2707	2.0000
90.9000	78.9842	65.0742	0.0000	4.2518	2.0000
91.0000	79.1176	65.1396	0.0000	4.2351	2.0000
91.1000	79.2510	65.2051	0.0000	4.2442	2.0000
91.2000	79.3844	65.2705	0.0000	4.2534	2.0000
91.3000	79.2560	65.2644	0.0000	4.2625	2.0000
91.4000	79.1277	65.0915	0.0000	4.2717	2.0000
91.5000	78.9993	64.9187	0.0000	4.2808	2.0000
91.6000	78.8709	64.7458	0.0000	4.2900	2.0000
91.7000	78.7426	64.5730	0.0000	4.2991	2.0000
91.8000	78.6142	64.4001	0.0000	4.3083	2.0000
91.9000	78.4859	64.2273	0.0000	4.3174	2.0000
92.0000	78.3575	64.0545	0.0000	4.3266	2.0000
92.1000	78.2292	63.8816	0.0000	4.3358	2.0000
92.2000	78.1008	63.7088	0.0000	4.3449	2.0000
92.3000	77.9724	63.5933	0.0000	4.3541	2.0000
92.4000	77.8441	63.4922	0.0000	4.3632	2.0000
92.5000	77.7157	63.3911	0.0000	4.3724	2.0000
92.6000	77.5874	63.2900	0.0000	4.3815	2.0000
92.7000	77.4590	63.1889	0.0000	4.3907	2.0000
92.8000	77.3306	63.0877	0.0000	4.3998	2.0000
92.9000	77.2023	62.9866	0.0000	4.4090	2.0000
93.0000	77.0739	62.8855	0.0000	4.4181	2.0000
93.1000	76.9456	62.7844	0.0000	4.4273	2.0000
93.2000	76.8172	62.6306	0.0000	4.4365	2.0000
93.3000	76.6888	62.3830	0.0000	4.4456	2.0000
93.4000	76.5605	62.1353	0.0000	4.4548	2.0000
93.5000	76.4321	61.8877	0.0000	4.4639	2.0000
93.6000	76.3038	61.6401	0.0000	4.4731	2.0000
93.7000	76.1754	61.3925	0.0000	4.4822	2.0000
93.8000	76.0471	61.1449	0.0000	4.4914	2.0000
93.9000	75.9187	60.8973	0.0000	4.5005	2.0000
94.0000	75.7903	60.6497	0.0000	4.5097	2.0000
94.1000	75.6620	60.5616	0.0000	4.5188	2.0000
94.2000	75.5336	60.8458	0.0000	4.5280	2.0000
94.3000	75.4053	61.1300	0.0000	4.5371	2.0000
94.4000	75.2769	61.4141	0.0000	4.5463	2.0000
94.5000	75.1485	61.6983	0.0000	4.5555	2.0000
94.6000	75.0741	61.9825	0.0000	4.5646	2.0000
94.7000	74.9996	62.2666	0.0000	4.5738	2.0000
94.8000	74.9251	62.5508	0.0000	4.5829	2.0000
94.9000	74.8506	62.8350	0.0000	4.5921	2.0000
95.0000	75.0597	63.2029	0.0000	4.6012	2.0000
95.1000	75.3227	63.5868	0.0000	4.6104	2.0000
95.2000	75.5858	63.9708	0.0000	4.6195	2.0000
95.3000	75.8489	64.3547	0.0000	4.6151	2.0000
95.4000	76.1120	64.7386	0.0000	4.6042	2.0000
95.5000	76.3751	65.1225	0.0000	4.5934	2.0000
95.6000	76.6382	65.5064	0.0000	4.5825	2.0000
95.7000	76.9013	65.8904	0.0000	4.5717	2.0000
95.8000	77.1643	66.2743	0.0000	4.5608	2.0000
95.9000	77.3468	66.5003	0.0000	4.5500	2.0000
96.0000	77.5140	66.6962	0.0000	4.5391	2.0000
96.1000	77.6811	66.8922	0.0000	4.5283	2.0000
96.2000	77.8483	67.0881	0.0000	4.5174	2.0000
96.3000	78.0154	67.2841	0.0000	4.5066	2.0000
96.4000	78.1826	67.4800	0.0000	4.4957	2.0000
96.5000	78.3497	67.6759	0.0000	4.4848	2.0000
96.6000	78.5169	67.8719	0.0000	4.4740	2.0000
96.7000	78.6840	68.0678	0.0000	4.4631	2.0000
96.8000	78.8068	68.1424	0.0000	4.4523	2.0000
96.9000	78.8351	67.9590	0.0000	4.4414	2.0000
97.0000	78.8635	67.7756	0.0000	4.4306	2.0000
97.1000	78.8918	67.5922	0.0000	4.4197	2.0000
97.2000	78.9202	67.4088	0.0000	4.4089	2.0000
97.3000	78.9485	67.2255	0.0000	4.3980	2.0000
97.4000	78.9768	67.0421	0.0000	4.3872	2.0000
97.5000	79.0052	66.8587	0.0000	4.3763	2.0000
97.6000	79.0335	66.6753	0.0000	4.3655	2.0000
97.7000	79.0619	66.4919	0.0000	4.3546	2.0000
97.8000	78.9770	66.2005	0.0000	4.3438	2.0000
97.9000	78.8602	65.8785	0.0000	4.3329	2.0000
98.0000	78.7434	65.5565	0.0000	4.3221	2.0000
98.1000	78.6267	65.2346	0.0000	4.3112	2.0000
98.2000	78.5099	64.9126	0.0000	4.3003	2.0000
98.3000	78.3931	64.5906	0.0000	4.2895	2.0000
98.4000	78.2763	64.2687	0.0000	4.2786	2.0000
98.5000	78.1595	63.9467	0.0000	4.2678	2.0000
98.6000	78.0427	63.6247	0.0000	4.2569	2.0000
98.7000	78.0876	63.5807	0.0000	4.2461	2.0000
98.8000	78.2233	63.6930	0.0000	4.2352	2.0000
98.9000	78.3590	63.8052	0.0000	4.2244	2.0000
99.0000	78.4948	63.9175	0.0000	4.2135	2.0000
99.1000	78.6305	64.0298	0.0000	4.2027	2.0000
99.2000	78.7662	64.1421	0.0000	4.1918	2.0000
99.3000	78.9020	64.2544	0.0000	4.1810	2.0000
99.4000	79.0377	64.3666	0.0000	4.1701	2.0000
99.5000	79.1735	64.4789	0.0000	4.1593	2.0000
99.6000	79.2560	64.4486	0.0000	4.1484	2.0000
99.7000	79.2999	64.3152	0.0000	4.1375	2.0000
99.8000	79.3439	64.1817	0.0000	4.1470	2.0000
99.9000	79.3878	64.0482	0.0000	4.1573	2.0000
100.0000	79.4318	63.9147	0.0000	4.1676	2.0000
100.1000	79.4757	63.7812	0.0000	4.1779	2.0000
100.2000	79.5197	63.6478	0.0000	4.1882	2.0000
100.3000	79.5636	63.5143	0.0000	4.1984	2.0000
100.4000	79.6076	63.3808	0.0000	4.2087	2.0000
100.5000	79.6515	63.2473	0.0000	4.2190	2.0000
100.6000	79.5577	63.1463	0.0000	4.2293	2.0000
100.7000	79.4376	63.0514	0.0000	4.2396	2.0000
100.8000	79.3175	62.9565	0.0000	4.2499	2.0000
100.9000	79.1974	62.8616	0.0000	4.2602	2.0000
101.0000	79.0773	62.7667	0.0000	4.2705	2.0000
101.1000	78.9572	62.6719	0.0000	4.2808	2.0000
101.2000	78.8370	62.5770	0.0000	4.2911	2.0000
101.3000	78.7169	62.4821	0.0000	4.3013	2.0000
101.4000	78.5968	62.3872	0.0000	4.3116	2.0000
101.5000	78.4976	62.2899	0.0000	4.3219	2.0000
101.6000	78.4726	62.1841	0.0000	4.3322	2.0000
101.7000	78.4475	62.0783	0.0000	4.3425	2.0000
101.8000	78.4224	61.9725	0.0000	4.3528	2.0000
101.9000	78.3974	61.8666	0.0000	4.3631	2.0000
102.0000	78.3723	61.7608	0.0000	4.3734	2.0000
102.1000	78.3472	61.6550	0.0000	4.3837	2.0000
102.2000	78.3221	61.5492	0.0000	4.3940	2.0000
102.3000	78.2971	61.4434	0.0000	4.4042	2.0000
102.4000	78.2720	61.3375	0.0000	4.4145	2.0000
102.5000	78.2185	61.3674	0.0000	4.4248	2.0000
102.6000	78.1644	61.4001	0.0000	4.4351	2.0000
102.7000	78.1104	61.4327	0.0000	4.4454	2.0000
102.8000	78.0563	61.4654	0.0000	4.4557	2.0000
102.9000	78.0022	61.4980	0.0000	4.4660	2.0000
103.0000	77.9481	61.5307	0.0000	4.4763	2.0000
103.1000	77.8940	61.5633	0.0000	4.4866	2.0000
103.2000	77.8400	61.5960	0.0000	4.4968	2.0000
103.3000	77.8291	61.6716	0.0000	4.5071	2.0000
103.4000	77.9910	61.9190	0.0000	4.5174	2.0000
103.5000	78.1529	62.1664	0.0000	4.5277	2.0000
103.6000	78.3148	62.4138	0.0000	4.5380	2.0000
103.7000	78.4767	62.6612	0.0000	4.5483	2.0000
103.8000	78.6386	62.9086	0.0000	4.5586	2.0000
103.9000	78.8005	63.1560	0.0000	4.5689	2.0000
104.0000	78.9624	63.4034	0.0000	4.5792	2.0000
104.1000	79.1243	63.6508	0.0000	4.5895	2.0000
104.2000	79.4499	63.9621	0.0000	4.5997	2.0000
104.3000	79.8164	64.2895	0.0000	4.6100	2.0000
104.4000	80.1829	64.6169	0.0000	4.6203	2.0000
104.5000	80.5494	64.9443	0.0000	4.6300	2.0000
104.6000	80.9159	65.2717	0.0000	4.6249	2.0000
104.7000	81.2824	65.5990	0.0000	4.6198	2.0000
104.8000	81.6489	65.9264	0.0000	4.6146	2.0000
104.9000	82.0154	66.2538	0.0000	4.6095	2.0000
105.0000	82.3819	66.5812	0.0000	4.6044	2.0000
105.1000	82.4884	66.5936	0.0000	4.5993	2.0000
105.2000	82.5453	66.5460	0.0000	4.5941	2.0000
105.3000	82.6022	66.4984	0.0000	4.5890	2.0000
105.4000	82.6591	66.4508	0.0000	4.5839	2.0000
105.5000	82.7161	66.4032	0.0000	4.5788	2.0000
105.6000	82.7730	66.3557	0.0000	4.5736	2.0000
105.7000	82.8299	66.3081	0.0000	4.5685	2.0000
105.8000	82.8868	66.2605	0.0000	4.5634	2.0000
105.9000	82.9437	66.2129	0.0000	4.5583	2.0000
106.0000	82.9716	66.1374	0.0000	4.5532	2.0000
106.1000	82.8674	65.9347	0.0000	4.5480	2.0000
106.2000	82.7631	65.7320	0.0000	4.5429	2.0000
106.3000	82.6588	65.5293	0.0000	4.5378	2.0000
106.4000	82.5546	65.3266	0.0000	4.5327	2.0000
106.5000	82.4503	65.1239	0.0000	4.5275	2.0000
106.6000	82.3460	64.9213	0.0000	4.5224	2.0000
106.7000	82.2418	64.7186	0.0000	4.5173	2.0000
106.8000	82.1375	64.5159	0.0000	4.5122	2.0000
106.9000	82.0332	64.3132	0.0000	4.5070	2.0000
107.0000	81.8893	64.1451	0.0000	4.5019	2.0000
107.1000	81.7316	63.9891	0.0000	4.4968	2.0000
107.2000	81.5738	63.8331	0.0000	4.4917	2.0000
107.3000	81.4160	63.6771	0.0000	4.4866	2.0000
107.4000	81.2582	63.5211	0.0000	4.4814	2.0000
107.5000	81.1004	63.3651	0.0000	4.4763	2.0000
107.6000	80.9426	63.2091	0.0000	4.4712	2.0000
107.7000	80.7848	63.0531	0.0000	4.4661	2.0000
107.8000	80.6270	62.8971	0.0000	4.4609	2.0000
107.9000	80.4962	62.8165	0.0000	4.4558	2.0000
108.0000	80.3739	62.7596	0.0000	4.4507	2.0000
108.1000	80.2516	62.7027	0.0000	4.4456	2.0000
108.2000	80.1293	62.6458	0.0000	4.4404	2.0000
108.3000	80.0070	62.5889	0.0000	4.4353	2.0000
108.4000	79.8847	62.5320	0.0000	4.4302	2.0000
108.5000	79.7623	62.4752	0.0000	4.4251	2.0000
108.6000	79.6400	62.4183	0.0000	4.4199	2.0000
108.7000	79.5347	62.3918	0.0000	4.4148	2.0000
108.8000	79.5542	62.5885	0.0000	4.4097	2.0000
108.9000	79.5737	62.7852	0.0000	4.4046	2.0000
109.0000	79.5931	62.9820	0.0000	4.4012	2.0000
109.1000	79.6126	63.1787	0.0000	4.4036	2.0000
109.2000	79.6321	63.3754	0.0000	4.4059	2.0000
109.3000	79.6516	63.5721	0.0000	4.4083	2.0000
109.4000	79.6710	63.7688	0.0000	4.4106	2.0000
109.5000	79.6905	63.9656	0.0000	4.4130	2.0000
109.6000	79.7100	64.1623	0.0000	4.4153	2.0000
109.7000	79.5973	64.1280	0.0000	4.4177	2.0000
109.8000	79.4225	63.9851	0.0000	4.4200	2.0000
109.9000	79.2477	63.8422	0.0000	4.4224	2.0000
110.0000	79.0729	63.6993	0.0000	4.4247	2.0000
110.1000	78.8980	63.5564	0.0000	4.4271	2.0000
110.2000	78.7232	63.4134	0.0000	4.4294	2.0000
110.3000	78.5484	63.2705	0.0000	4.4317	2.0000
110.4000	78.3735	63.1276	0.0000	4.4341	2.0000
110.5000	78.1987	62.9847	0.0000	4.4364	2.0000
110.6000	78.0281	62.8714	0.0000	4.4388	2.0000
110.7000	77.8798	62.9134	0.0000	4.4411	2.0000
110.8000	77.7315	62.9554	0.0000	4.4435	2.0000
110.9000	77.5832	62.9974	0.0000	4.4458	2.0000
111.0000	77.4349	63.0394	0.0000	4.4482	2.0000
111.1000	77.2865	63.0814	0.0000	4.4505	2.0000
111.2000	77.1382	63.1234	0.0000	4.4529	2.0000
111.3000	76.9899	63.1654	0.0000	4.4552	2.0000
111.4000	76.8416	63.2075	0.0000	4.4575	2.0000
111.5000	76.6933	63.2021	0.0000	4.4599	2.0000
111.6000	76.5658	63.1967	0.0000	4.4622	2.0000
111.7000	76.4388	63.1914	0.0000	4.4646	2.0000
111.8000	76.3118	63.1860	0.0000	4.4669	2.0000
111.9000	76.1848	63.1806	0.0000	4.4693	2.0000
112.0000	76.0578	63.1753	0.0000	4.4716	2.0000
112.1000	75.9308	63.1699	0.0000	4.4740	2.0000
112.2000	75.8037	63.1646	0.0000	4.4763	2.0000
112.3000	75.6767	63.1592	0.0000	4.4787	2.0000
112.4000	75.5568	63.1538	0.0000	4.4810	2.0000
112.5000	75.5190	63.1485	0.0000	4.4834	2.0000
112.6000	75.4811	63.1431	0.0000	4.4857	2.0000
112.7000	75.4433	63.1378	0.0000	4.4880	2.0000
112.8000	75.4055	63.1324	0.0000	4.4904	2.0000
112.9000	75.3676	63.1270	0.0000	4.4927	2.0000
113.0000	75.3298	63.1217	0.0000	4.4951	2.0000
113.1000	75.2919	63.1163	0.0000	4.4974	2.0000
113.2000	75.2541	63.1109	0.0000	4.4998	2.0000
113.3000	75.6006	63.1056	0.0000	4.5021	2.0000
113.4000	76.0556	63.4592	0.0000	4.5045	2.0000
113.5000	76.5106	63.8128	0.0000	4.5068	2.0000
113.6000	76.9656	64.1664	0.0000	4.5092	2.0000
113.7000	77.4206	64.5200	0.0000	4.5115	2.0000
113.8000	77.8756	64.8737	0.0000	4.5138	2.0000
113.9000	78.3306	65.2273	0.0000	4.5162	2.0000
114.0000	78.7856	65.5809	0.0000	4.5185	2.0000
114.1000	79.4955	66.2320	0.0000	4.5209	2.0000
114.2000	80.2469	66.9315	0.0000	4.5232	2.0000
114.3000	80.9983	67.6310	0.0000	4.5256	2.0000
114.4000	81.7497	68.3305	0.0000	4.5279	2.0000
114.5000	82.5011	69.0300	0.0000	4.5219	2.0000
114.6000	83.2524	69.7295	0.0000	4.5152	2.0000
114.7000	84.0038	70.4290	0.0000	4.5085	2.0000
114.8000	84.7552	71.1285	0.0000	4.5017	2.0000
114.9000	85.2345	71.4244	0.0000	4.4950	2.0000
115.0000	85.4190	71.2832	0.0000	4.4883	2.0000
115.1000	85.6035	71.1419	0.0000	4.4815	2.0000
115.2000	85.7880	71.0007	0.0000	4.4748	2.0000
115.3000	85.9725	70.8594	0.0000	4.4681	2.0000
115.4000	86.1570	70.7182	0.0000	4.4614	2.0000
115.5000	86.3415	70.5769	0.0000	4.4546	2.0000
115.6000	86.5260	70.4357	0.0000	4.4479	2.0000
115.7000	86.7105	70.2944	0.0000	4.4412	2.0000
115.8000	86.8692	70.1283	0.0000	4.4344	2.0000
115.9000	86.7957	69.7387	0.0000	4.4277	2.0000
116.0000	86.7222	69.3490	0.0000	4.4210	2.0000
116.1000	86.6488	68.9593	0.0000	4.4142	2.0000
116.2000	86.5753	68.5697	0.0000	4.4075	2.0000
116.3000	86.5019	68.1800	0.0000	4.4008	2.0000
116.4000	86.4284	67.7903	0.0000	4.3941	2.0000
116.5000	86.3549	67.4007	0.0000	4.3873	2.0000
116.6000	86.2815	67.0110	0.0000	4.3806	2.0000
116.7000	86.2080	66.6214	0.0000	4.3739	2.0000
116.8000	86.0156	66.4439	0.0000	4.3671	2.0000
116.9000	85.8037	66.3010	0.0000	4.3604	2.0000
117.0000	85.5919	66.1581	0.0000	4.3537	2.0000
117.1000	85.3800	66.0153	0.0000	4.3470	2.0000
117.2000	85.1682	65.8724	0.0000	4.3402	2.0000
117.3000	84.9563	65.7295	0.0000	4.3335	2.0000
117.4000	84.7445	65.5866	0.0000	4.3268	2.0000
117.5000	84.5326	65.4437	0.0000	4.3200	2.0000
117.6000	84.3208	65.3008	0.0000	4.3133	2.0000
117.7000	84.2647	65.3513	0.0000	4.3066	2.0000
117.8000	84.2223	65.4185	0.0000	4.2998	2.0000
117.9000	84.1798	65.4858	0.0000	4.2931	2.0000
118.0000	84.1374	65.5530	0.0000	4.2864	2.0000
118.1000	84.0949	65.6203	0.0000	4.2797	2.0000
118.2000	84.0524	65.6875	0.0000	4.2729	2.0000
118.3000	84.0100	65.7548	0.0000	4.2662	2.0000
118.4000	83.9675	65.8220	0.0000	4.2595	2.0000
118.5000	83.9250	65.8893	0.0000	4.2644	2.0000
118.6000	83.7470	65.7184	0.0000	4.2703	2.0000
118.7000	83.5504	65.5151	0.0000	4.2763	2.0000
118.8000	83.3538	65.3118	0.0000	4.2822	2.0000
118.9000	83.1573	65.1084	0.0000	4.2881	2.0000
119.0000	82.9607	64.9051	0.0000	4.2941	2.0000
119.1000	82.7641	64.7018	0.0000	4.3000	2.0000
119.2000	82.5676	64.4985	0.0000	4.3059	2.0000
119.3000	82.3710	64.2951	0.0000	4.3118	2.0000
119.4000	82.1744	64.0918	0.0000	4.3178	2.0000
119.5000	81.9674	63.8881	0.0000	4.3237	2.0000
119.6000	81.5965	63.6794	0.0000	4.3296	2.0000
119.7000	81.2255	63.4707	0.0000	4.3356	2.0000
119.8000	80.8546	63.2620	0.0000	4.3415	2.0000
119.9000	80.4836	63.0532	0.0000	4.3474	2.0000
120.0000	80.1127	62.8445	0.0000	4.3534	2.0000
120.1000	79.7418	62.6358	0.0000	4.3593	2.0000
120.2000	79.3708	62.4271	0.0000	4.3652	2.0000
120.3000	78.9999	62.2183	0.0000	4.3712	2.0000
120.4000	78.6290	62.0096	0.0000	4.3771	2.0000
120.5000	78.2724	61.7976	0.0000	4.3830	2.0000
120.6000	77.9528	61.5771	0.0000	4.3890	2.0000
120.7000	77.6331	61.3566	0.0000	4.3949	2.0000
120.8000	77.3135	61.1362	0.0000	4.4008	2.0000
120.9000	76.9938	60.9157	0.0000	4.4068	2.0000
121.0000	76.6742	60.6952	0.0000	4.4127	2.0000
121.1000	76.3546	60.4747	0.0000	4.4186	2.0000
121.2000	76.0349	60.2542	0.0000	4.4246	2.0000
121.3000	75.7153	60.0338	0.0000	4.4305	2.0000
121.4000	75.3956	59.8133	0.0000	4.4364	2.0000
121.5000	75.0843	59.6859	0.0000	4.4424	2.0000
121.6000	74.7744	59.5738	0.0000	4.4483	2.0000
121.7000	74.4644	59.4616	0.0000	4.4542	2.0000
121.8000	74.1544	59.3494	0.0000	4.4601	2.0000
121.9000	73.8445	59.2372	0.0000	4.4661	2.0000
122.0000	73.5345	59.1251	0.0000	4.4720	2.0000
122.1000	73.2246	59.0129	0.0000	4.4779	2.0000
122.2000	72.9146	58.9007	0.0000	4.4839	2.0000
122.3000	72.6611	58.8632	0.0000	4.4898	2.0000
122.4000	72.8213	59.3737	0.0000	4.4957	2.0000
122.5000	72.9816	59.8841	0.0000	4.5017	2.0000
122.6000	73.1418	60.3946	0.0000	4.5076	2.0000
122.7000	73.3021	60.9050	0.0000	4.5135	2.0000
122.8000	73.4624	61.4154	0.0000	4.5168	2.0000
122.9000	73.6226	61.9259	0.0000	4.5180	2.0000
123.0000	73.7829	62.4363	0.0000	4.5192	2.0000
123.1000	73.9432	62.9468	0.0000	4.5204	2.0000
123.2000	74.1376	63.4289	0.0000	4.5216	2.0000
123.3000	74.3793	63.8719	0.0000	4.5228	2.0000
123.4000	74.6210	64.3150	0.0000	4.5240	2.0000
123.5000	74.8626	64.7580	0.0000	4.5252	2.0000
123.6000	75.1043	65.2010	0.0000	4.5264	2.0000
123.7000	75.3460	65.6441	0.0000	4.5276	2.0000
123.8000	75.5877	66.0871	0.0000	4.5288	2.0000
123.9000	75.8293	66.5301	0.0000	4.5300	2.0000
124.0000	76.0710	66.9732	0.0000	4.5312	2.0000
124.1000	76.2747	67.1675	0.0000	4.5324	2.0000
124.2000	76.4260	67.0183	0.0000	4.5336	2.0000
124.3000	76.5773	66.8691	0.0000	4.5348	2.0000
124.4000	76.7286	66.7200	0.0000	4.5360	2.0000
124.5000	76.8799	66.5708	0.0000	4.5372	2.0000
124.6000	77.0312	66.4216	0.0000	4.5384	2.0000
124.7000	77.1825	66.2725	0.0000	4.5396	2.0000
124.8000	77.3338	66.1233	0.0000	4.5408	2.0000
124.9000	77.4851	65.9741	0.0000	4.5420	2.0000
125.0000	77.6364	65.8250	0.0000	4.5432	2.0000
125.1000	77.6998	65.6968	0.0000	4.5444	2.0000
125.2000	77.7513	65.5715	0.0000	4.5456	2.0000
125.3000	77.8027	65.4462	0.0000	4.5468	2.0000
125.4000	77.8542	65.3208	0.0000	4.5479	2.0000
125.5000	77.9056	65.1955	0.0000	4.5491	2.0000
125.6000	77.9571	65.0702	0.0000	4.5503	2.0000
125.7000	78.0085	64.9449	0.0000	4.5515	2.0000
125.8000	78.0600	64.8196	0.0000	4.5527	2.0000
125.9000	78.1114	64.6943	0.0000	4.5539	2.0000
126.0000	78.1430	64.6653	0.0000	4.5551	2.0000
126.1000	78.1513	64.7493	0.0000	4.5563	2.0000
126.2000	78.1595	64.8333	0.0000	4.5575	2.0000
126.3000	78.1678	64.9174	0.0000	4.5587	2.0000
126.4000	78.1761	65.0014	0.0000	4.5599	2.0000
126.5000	78.1843	65.0855	0.0000	4.5611	2.0000
126.6000	78.1926	65.1695	0.0000	4.5623	2.0000
126.7000	78.2009	65.2535	0.0000	4.5635	2.0000
126.8000	78.2091	65.3376	0.0000	4.5647	2.0000
126.9000	78.3209	65.4909	0.0000	4.5659	2.0000
127.0000	78.4728	65.6711	0.0000	4.5671	2.0000
127.1000	78.6248	65.8513	0.0000	4.5683	2.0000
127.2000	78.7767	66.0315	0.0000	4.5695	2.0000
127.3000	78.9287	66.2117	0.0000	4.5707	2.0000
127.4000	79.0806	66.3919	0.0000	4.5719	2.0000
127.5000	79.2326	66.5721	0.0000	4.5731	2.0000
127.6000	79.3845	66.7523	0.0000	4.5743	2.0000
127.7000	79.5913	66.9324	0.0000	4.5755	2.0000
127.8000	79.9259	67.1123	0.0000	4.5767	2.0000
127.9000	80.2605	67.2921	0.0000	4.5743	2.0000
128.0000	80.5951	67.4720	0.0000	4.5694	2.0000
128.1000	80.9297	67.6518	0.0000	4.5646	2.0000
128.2000	81.2643	67.8317	0.0000	4.5597	2.0000
128.3000	81.5989	68.0115	0.0000	4.5549	2.0000
128.4000	81.9335	68.1914	0.0000	4.5501	2.0000
128.5000	82.2680	68.3712	0.0000	4.5452	2.0000
128.6000	82.5154	68.4252	0.0000	4.5404	2.0000
128.7000	82.4534	68.0329	0.0000	4.5355	2.0000
128.8000	82.3913	67.6406	0.0000	4.5307	2.0000
128.9000	82.3293	67.2483	0.0000	4.5258	2.0000
129.0000	82.2673	66.8560	0.0000	4.5210	2.0000
129.1000	82.2053	66.4637	0.0000	4.5162	2.0000
129.2000	82.1432	66.0714	0.0000	4.5113	2.0000
129.3000	82.0812	65.6791	0.0000	4.5065	2.0000
129.4000	82.0192	65.2868	0.0000	4.5016	2.0000
129.5000	81.9572	64.8945	0.0000	4.4968	2.0000
129.6000	81.8951	64.5022	0.0000	4.4920	2.0000
129.7000	81.7077	64.4292	0.0000	4.4871	2.0000
129.8000	81.4889	64.4362	0.0000	4.4823	2.0000
129.9000	81.2701	64.4431	0.0000	4.4774	2.0000
130.0000	81.0513	64.4501	0.0000	4.4726	2.0000
130.1000	80.8325	64.4570	0.0000	4.4678	2.0000
130.2000	80.6137	64.4639	0.0000	4.4629	2.0000
130.3000	80.3949	64.4709	0.0000	4.4581	2.0000
130.4000	80.1761	64.4778	0.0000	4.4532	2.0000
130.5000	79.9573	64.4847	0.0000	4.4484	2.0000
130.6000	79.7343	64.4837	0.0000	4.4435	2.0000
130.7000	79.4733	64.4113	0.0000	4.4387	2.0000
130.8000	79.2123	64.3388	0.0000	4.4339	2.0000
130.9000	78.9513	64.2664	0.0000	4.4290	2.0000
131.0000	78.6903	64.1939	0.0000	4.4242	2.0000
131.1000	78.4293	64.1214	0.0000	4.4193	2.0000
131.2000	78.1683	64.0490	0.0000	4.4145	2.0000
131.3000	77.9074	63.9765	0.0000	4.4097	2.0000
131.4000	77.6464	63.9041	0.0000	4.4048	2.0000
131.5000	77.3854	63.8316	0.0000	4.4000	2.0000
131.6000	77.2384	63.9885	0.0000	4.3951	2.0000
131.7000	77.0987	64.1600	0.0000	4.3903	2.0000
131.8000	76.9591	64.3315	0.0000	4.3855	2.0000
131.9000	76.8194	64.5030	0.0000	4.3806	2.0000
132.0000	76.6797	64.6746	0.0000	4.3758	2.0000
132.1000	76.5400	64.8461	0.0000	4.3709	2.0000
132.2000	76.4003	65.0176	0.0000	4.3661	2.0000
132.3000	76.2606	65.1891	0.0000	4.3592	2.0000
132.4000	76.1210	65.3606	0.0000	4.3522	2.0000
132.5000	76.0022	65.3526	0.0000	4.3451	2.0000
132.6000	75.8868	65.3154	0.0000	4.3381	2.0000
132.7000	75.7714	65.2782	0.0000	4.3311	2.0000
132.8000	75.6560	65.2410	0.0000	4.3241	2.0000
132.9000	75.5407	65.2037	0.0000	4.3171	2.0000
133.0000	75.4253	65.1665	0.0000	4.3101	2.0000
133.1000	75.3099	65.1293	0.0000	4.3031	2.0000
133.2000	75.1945	65.0920	0.0000	4.2961	2.0000
133.3000	75.0792	65.0548	0.0000	4.2891	2.0000
133.4000	74.9638	65.0176	0.0000	4.2821	2.0000
133.5000	74.6932	64.9537	0.0000	4.2751	2.0000
133.6000	74.3736	64.8813	0.0000	4.2681	2.0000
133.7000	74.0541	64.8089	0.0000	4.2610	2.0000
133.8000	73.7345	64.7366	0.0000	4.2540	2.0000
133.9000	73.4149	64.6642	0.0000	4.2470	2.0000
134.0000	73.0953	64.5918	0.0000	4.2400	2.0000
134.1000	72.7758	64.5194	0.0000	4.2330	2.0000
134.2000	72.4562	64.4471	0.0000	4.2260	2.0000
134.3000	72.1366	64.3747	0.0000	4.2190	2.0000
134.4000	71.8988	64.3730	0.0000	4.2120	2.0000
134.5000	71.8713	64.5529	0.0000	4.2050	2.0000
134.6000	71.8439	64.7329	0.0000	4.1980	2.0000
134.7000	71.8164	64.9128	0.0000	4.1910	2.0000
134.8000	71.7889	65.0927	0.0000	4.1839	2.0000
134.9000	71.7614	65.2727	0.0000	4.1769	2.0000
135.0000	71.7340	65.4526	0.0000	4.1699	2.0000
135.1000	71.7065	65.6325	0.0000	4.1629	2.0000
135.2000	71.6790	65.8125	0.0000	4.1559	2.0000
135.3000	71.6789	66.0265	0.0000	4.1489	2.0000
135.4000	71.8033	66.3960	0.0000	4.1419	2.0000
135.5000	71.9278	66.7654	0.0000	4.1349	2.0000
135.6000	72.0523	67.1349	0.0000	4.1279	2.0000
135.7000	72.1767	67.5043	0.0000	4.1209	2.0000
135.8000	72.3012	67.8738	0.0000	4.1139	2.0000
135.9000	72.4256	68.2432	0.0000	4.1068	2.0000
136.0000	72.5501	68.6127	0.0000	4.0998	2.0000
136.1000	72.6746	68.9821	0.0000	4.0928	2.0000
136.2000	72.7990	69.3516	0.0000	4.0858	2.0000
136.3000	72.9037	69.6533	0.0000	4.0788	2.0000
136.4000	73.0071	69.9507	0.0000	4.0718	2.0000
136.5000	73.1106	70.2481	0.0000	4.0648	2.0000
136.6000	73.2140	70.5454	0.0000	4.0578	2.0000
136.7000	73.3174	70.8428	0.0000	4.0508	2.0000
136.8000	73.4209	71.1402	0.0000	4.0438	2.0000
136.9000	73.5243	71.4376	0.0000	4.0368	2.0000
137.0000	73.6277	71.7350	0.0000	4.0298	2.0000
137.1000	73.7267	72.0145	0.0000	4.0227	2.0000
137.2000	73.7193	71.8660	0.0000	4.0157	2.0000
137.3000	73.7118	71.7174	0.0000	4.0087	2.0000
137.4000	73.7044	71.5688	0.0000	4.0017	2.0000
137.5000	73.6969	71.4203	0.0000	3.9947	2.0000
137.6000	73.6895	71.2717	0.0000	3.9877	2.0000
137.7000	73.6820	71.1232	0.0000	3.9807	2.0000
137.8000	73.6746	70.9746	0.0000	3.9737	2.0000
137.9000	73.6671	70.8261	0.0000	3.9667	2.0000
138.0000	73.8399	71.0444	0.0000	3.9597	2.0000
138.1000	74.0900	71.4200	0.0000	3.9527	2.0000
138.2000	74.3400	71.7956	0.0000	3.9456	2.0000
138.3000	74.5901	72.1712	0.0000	3.9386	2.0000
138.4000	74.8401	72.5468	0.0000	3.9316	2.0000
138.5000	75.0902	72.9224	0.0000	3.9255	2.0000
138.6000	75.3403	73.2979	0.0000	3.9256	2.0000
138.7000	75.5903	73.6735	0.0000	3.9257	2.0000
138.8000	75.8542	74.1724	0.0000	3.9258	2.0000
138.9000	76.1330	74.8049	0.0000	3.9259	2.0000
139.0000	76.4118	75.4374	0.0000	3.9260	2.0000
139.1000	76.6906	76.0699	0.0000	3.9261	2.0000
139.2000	76.9694	76.7024	0.0000	3.9262	2.0000
139.3000	77.2482	77.3349	0.0000	3.9263	2.0000
139.4000	77.5270	77.9674	0.0000	3.9265	2.0000
139.5000	77.8058	78.5999	0.0000	3.9266	2.0000
139.6000	78.0448	79.0003	0.0000	3.9267	2.0000
139.7000	78.2065	78.9504	0.0000	3.9268	2.0000
139.8000	78.3681	78.9005	0.0000	3.9269	2.0000
139.9000	78.5298	78.8506	0.0000	3.9270	2.0000
140.0000	78.6915	78.8007	0.0000	3.9271	2.0000
140.1000	78.8531	78.7508	0.0000	3.9272	2.0000
140.2000	79.0148	78.7009	0.0000	3.9273	2.0000
140.3000	79.1765	78.6510	0.0000	3.9274	2.0000
140.4000	79.1739	78.3398	0.0000	3.9275	2.0000
140.5000	79.0789	77.8816	0.0000	3.9277	2.0000
140.6000	78.9839	77.4234	0.0000	3.9278	2.0000
140.7000	78.8889	76.9653	0.0000	3.9279	2.0000
140.8000	78.7939	76.5071	0.0000	3.9280	2.0000
140.9000	78.6989	76.0489	0.0000	3.9281	2.0000
141.0000	78.6039	75.5908	0.0000	3.9282	2.0000
141.1000	78.5089	75.1326	0.0000	3.9283	2.0000
141.2000	78.2683	74.7450	0.0000	3.9284	2.0000
141.3000	77.9590	74.3907	0.0000	3.9285	2.0000
141.4000	77.6498	74.0363	0.0000	3.9286	2.0000
141.5000	77.3406	73.6820	0.0000	3.9287	2.0000
141.6000	77.0314	73.3276	0.0000	3.9289	2.0000
141.7000	76.7221	72.9733	0.0000	3.9290	2.0000
141.8000	76.4129	72.6189	0.0000	3.9291	2.0000
141.9000	76.1037	72.2646	0.0000	3.9292	2.0000
142.0000	75.8821	71.9820	0.0000	3.9293	2.0000
142.1000	75.7816	71.7984	0.0000	3.9294	2.0000
142.2000	75.6811	71.6148	0.0000	3.9295	2.0000
142.3000	75.5806	71.4312	0.0000	3.9296	2.0000
142.4000	75.4801	71.2477	0.0000	3.9297	2.0000
142.5000	75.3796	71.0641	0.0000	3.9298	2.0000
142.6000	75.2791	70.8805	0.0000	3.9299	2.0000
142.7000	75.1785	70.6970	0.0000	3.9301	2.0000
142.8000	75.0885	70.4952	0.0000	3.9302	2.0000
142.9000	75.0155	70.2636	0.0000	3.9303	2.0000
143.0000	74.9424	70.0321	0.0000	3.9304	2.0000
143.1000	74.8694	69.8005	0.0000	3.9305	2.0000
143.2000	74.7964	69.5690	0.0000	3.9306	2.0000
143.3000	74.7234	69.3374	0.0000	3.9307	2.0000
143.4000	74.6504	69.1059	0.0000	3.9192	2.0000
143.5000	74.5774	68.8743	0.0000	3.9078	2.0000
143.6000	74.5043	68.6428	0.0000	3.8963	2.0000
143.7000	74.3768	68.4305	0.0000	3.8848	2.0000
143.8000	74.1521	68.2523	0.0000	3.8734	2.0000
143.9000	73.9275	68.0741	0.0000	3.8619	2.0000
144.0000	73.7029	67.8959	0.0000	3.8504	2.0000
144.1000	73.4783	67.7178	0.0000	3.8390	2.0000
144.2000	73.2537	67.5396	0.0000	3.8275	2.0000
144.3000	73.0291	67.3614	0.0000	3.8160	2.0000
144.4000	72.8045	67.1833	0.0000	3.8046	2.0000
144.5000	72.5799	67.0051	0.0000	3.7931	2.0000
144.6000	72.3279	66.7543	0.0000	3.7816	2.0000
144.7000	72.0272	66.3745	0.0000	3.7701	2.0000
144.8000	71.7265	65.9947	0.0000	3.7587	2.0000
144.9000	71.4258	65.6149	0.0000	3.7472	2.0000
145.0000	71.1251	65.2351	0.0000	3.7357	2.0000
145.1000	70.8245	64.8553	0.0000	3.7243	2.0000
145.2000	70.5238	64.4755	0.0000	3.7128	2.0000
145.3000	70.2231	64.0957	0.0000	3.7013	2.0000
145.4000	69.9224	63.7159	0.0000	3.6899	2.0000
145.5000	69.9521	64.0283	0.0000	3.6784	2.0000
145.6000	70.0030	64.3849	0.0000	3.6669	2.0000
145.7000	70.0538	64.7415	0.0000	3.6555	2.0000
145.8000	70.1046	65.0982	0.0000	3.6440	2.0000
145.9000	70.1555	65.4548	0.0000	3.6325	2.0000
146.0000	70.2063	65.8114	0.0000	3.6211	2.0000
146.1000	70.2571	66.1680	0.0000	3.6096	2.0000
146.2000	70.3079	66.5246	0.0000	3.5981	2.0000
146.3000	70.3941	66.7111	0.0000	3.5873	2.0000
146.4000	70.4892	66.8550	0.0000	3.5927	2.0000
146.5000	70.5842	66.9989	0.0000	3.5981	2.0000
146.6000	70.6792	67.1428	0.0000	3.6035	2.0000
146.7000	70.7743	67.2867	0.0000	3.6089	2.0000
146.8000	70.8693	67.4306	0.0000	3.6143	2.0000
146.9000	70.9643	67.5745	0.0000	3.6197	2.0000
147.0000	71.0594	67.7184	0.0000	3.6250	2.0000
147.1000	71.1115	67.8090	0.0000	3.6304	2.0000
147.2000	71.0536	67.7626	0.0000	3.6358	2.0000
147.3000	70.9956	67.7161	0.0000	3.6412	2.0000
147.4000	70.9376	67.6696	0.0000	3.6466	2.0000
147.5000	70.8796	67.6232	0.0000	3.6520	2.0000
147.6000	70.8217	67.5767	0.0000	3.6574	2.0000
147.7000	70.7637	67.5303	0.0000	3.6628	2.0000
147.8000	70.7057	67.4838	0.0000	3.6682	2.0000
147.9000	70.6477	67.4373	0.0000	3.6736	2.0000
148.0000	70.6454	67.3953	0.0000	3.6789	2.0000
148.1000	70.6522	67.3540	0.0000	3.6843	2.0000
148.2000	70.6589	67.3126	0.0000	3.6897	2.0000
148.3000	70.6657	67.2713	0.0000	3.6951	2.0000
148.4000	70.6725	67.2300	0.0000	3.7005	2.0000
148.5000	70.6792	67.1886	0.0000	3.7059	2.0000
148.6000	70.6860	67.1473	0.0000	3.7113	2.0000
148.7000	70.6927	67.1060	0.0000	3.7167	2.0000
148.8000	70.8288	67.1199	0.0000	3.7221	2.0000
148.9000	71.0102	67.1533	0.0000	3.7274	2.0000
149.0000	71.1916	67.1867	0.0000	3.7328	2.0000
149.1000	71.3731	67.2201	0.0000	3.7382	2.0000
149.2000	71.5545	67.2535	0.0000	3.7436	2.0000
149.3000	71.7360	67.2868	0.0000	3.7490	2.0000
149.4000	71.9174	67.3202	0.0000	3.7544	2.0000
149.5000	72.0989	67.3536	0.0000	3.7598	2.0000
149.6000	72.2194	67.2939	0.0000	3.7652	2.0000
149.7000	72.1238	66.9043	0.0000	3.7706	2.0000
149.8000	72.0282	66.5147	0.0000	3.7760	2.0000
149.9000	71.9326	66.1252	0.0000	3.7813	2.0000
150.0000	71.8370	65.7356	0.0000	3.7867	2.0000
150.1000	71.7414	65.3460	0.0000	3.7921	2.0000
150.2000	71.6458	64.9564	0.0000	3.7975	2.0000
150.3000	71.5502	64.5668	0.0000	3.8029	2.0000
150.4000	71.4546	64.1772	0.0000	3.8083	2.0000
150.5000	71.3267	63.8412	0.0000	3.8137	2.0000
150.6000	71.1363	63.6090	0.0000	3.8191	2.0000
150.7000	70.9458	63.3768	0.0000	3.8245	2.0000
150.8000	70.7554	63.1446	0.0000	3.8298	2.0000
150.9000	70.5650	62.9125	0.0000	3.8352	2.0000
151.0000	70.3745	62.6803	0.0000	3.8406	2.0000
151.1000	70.1841	62.4481	0.0000	3.8460	2.0000
151.2000	69.9936	62.2160	0.0000	3.8514	2.0000
151.3000	69.8032	61.9838	0.0000	3.8568	2.0000
151.4000	69.9520	62.2722	0.0000	3.8622	2.0000
151.5000	70.1224	62.5938	0.0000	3.8676	2.0000
151.6000	70.2929	62.9154	0.0000	3.8730	2.0000
151.7000	70.4633	63.2370	0.0000	3.8784	2.0000
151.8000	70.6337	63.5586	0.0000	3.8837	2.0000
151.9000	70.8042	63.8801	0.0000	3.8891	2.0000
152.0000	70.9746	64.2017	0.0000	3.8945	2.0000
152.1000	71.1451	64.5233	0.0000	3.8999	2.0000
152.2000	71.2726	64.5566	0.0000	3.9053	2.0000
152.3000	71.3895	64.5179	0.0000	3.9107	2.0000
152.4000	71.5063	64.4791	0.0000	3.9161	2.0000
152.5000	71.6231	64.4403	0.0000	3.9215	2.0000
152.6000	71.7400	64.4015	0.0000	3.9252	2.0000
152.7000	71.8568	64.3627	0.0000	3.9244	2.0000
152.8000	71.9736	64.3239	0.0000	3.9237	2.0000
152.9000	72.0905	64.2852	0.0000	3.9230	2.0000
153.0000	72.1853	64.2282	0.0000	3.9223	2.0000
153.1000	72.1648	64.0755	0.0000	3.9216	2.0000
153.2000	72.1443	63.9229	0.0000	3.9209	2.0000
153.3000	72.1238	63.7703	0.0000	3.9202	2.0000
153.4000	72.1033	63.6177	0.0000	3.9195	2.0000
153.5000	72.0828	63.4650	0.0000	3.9188	2.0000
153.6000	72.0623	63.3124	0.0000	3.9181	2.0000
153.7000	72.0418	63.1598	0.0000	3.9174	2.0000
153.8000	72.0213	63.0071	0.0000	3.9166	2.0000
153.9000	72.0783	63.0201	0.0000	3.9159	2.0000
154.0000	72.2012	63.1742	0.0000	3.9152	2.0000
154.1000	72.3242	63.3283	0.0000	3.9145	2.0000
154.2000	72.4471	63.4824	0.0000	3.9138	2.0000
154.3000	72.5701	63.6365	0.0000	3.9131	2.0000
154.4000	72.6930	63.7906	0.0000	3.9124	2.0000
154.5000	72.8159	63.9448	0.0000	3.9117	2.0000
154.6000	72.9389	64.0989	0.0000	3.9110	2.0000
154.7000	73.1112	64.2274	0.0000	3.9103	2.0000
154.8000	73.3795	64.3064	0.0000	3.9096	2.0000
154.9000	73.6478	64.3854	0.0000	3.9088	2.0000
155.0000	73.9161	64.4644	0.0000	3.9081	2.0000
155.1000	74.1844	64.5434	0.0000	3.9074	2.0000
155.2000	74.4527	64.6224	0.0000	3.9067	2.0000
155.3000	74.7210	64.7014	0.0000	3.9140	2.0000
155.4000	74.9892	64.7804	0.0000	3.9232	2.0000
155.5000	75.0030	64.8593	0.0000	3.9324	2.0000
155.6000	75.0167	65.0352	0.0000	3.9417	2.0000
155.7000	75.0305	65.2323	0.0000	3.9509	2.0000
155.8000	75.0442	65.4295	0.0000	3.9601	2.0000
155.9000	75.0580	65.6266	0.0000	3.9693	2.0000
156.0000	75.0717	65.8238	0.0000	3.9786	2.0000
156.1000	75.0855	66.0209	0.0000	3.9878	2.0000
156.2000	75.0992	66.2180	0.0000	3.9970	2.0000
156.3000	75.1130	66.4152	0.0000	4.0063	2.0000
156.4000	75.1267	66.6123	0.0000	4.0155	2.0000
156.5000	75.1405	66.3902	0.0000	4.0247	2.0000
156.6000	75.1542	66.1595	0.0000	4.0340	2.0000
156.7000	75.1680	65.9288	0.0000	4.0432	2.0000
156.8000	75.1817	65.6981	0.0000	4.0524	2.0000
156.9000	75.1955	65.4674	0.0000	4.0617	2.0000
157.0000	75.2092	65.2368	0.0000	4.0709	2.0000
157.1000	75.2230	65.0061	0.0000	4.0801	2.0000
157.2000	75.2367	64.7754	0.0000	4.0893	2.0000
157.3000	75.2505	64.5830	0.0000	4.0986	2.0000
157.4000	75.2642	64.4588	0.0000	4.1078	2.0000
157.5000	75.2780	64.3346	0.0000	4.1170	2.0000
157.6000	75.2917	64.2104	0.0000	4.1263	2.0000
157.7000	75.3055	64.0862	0.0000	4.1355	2.0000
157.8000	75.3192	63.9620	0.0000	4.1447	2.0000
157.9000	75.3330	63.8378	0.0000	4.1540	2.0000
158.0000	75.3467	63.7136	0.0000	4.1632	2.0000
158.1000	75.3605	63.7966	0.0000	4.1724	2.0000
158.2000	75.3742	64.3197	0.0000	4.1816	2.0000
158.3000	75.3880	64.8428	0.0000	4.1909	2.0000
158.4000	75.4017	65.3660	0.0000	4.2001	2.0000
158.5000	75.4155	65.8891	0.0000	4.2093	2.0000
158.6000	75.4292	66.4123	0.0000	4.2186	2.0000
158.7000	75.4430	66.9354	0.0000	4.2278	2.0000
158.8000	75.4567	67.4586	0.0000	4.2370	2.0000
158.9000	75.4705	67.9118	0.0000	4.2392	2.0000
159.0000	75.4842	67.9982	0.0000	4.2337	2.0000
159.1000	75.4980	68.0846	0.0000	4.2282	2.0000
159.2000	75.5117	68.1710	0.0000	4.2227	2.0000
159.3000	75.5499	68.2574	0.0000	4.2172	2.0000
159.4000	75.5880	68.3438	0.0000	4.2117	2.0000
159.5000	75.6262	68.4301	0.0000	4.2061	2.0000
159.6000	75.6643	68.5165	0.0000	4.2006	2.0000
159.7000	75.7024	68.6029	0.0000	4.1951	2.0000
159.8000	75.6032	68.4907	0.0000	4.1896	2.0000
159.9000	75.3771	68.1953	0.0000	4.1841	2.0000
160.0000	75.1510	67.8998	0.0000	4.1786	2.0000
160.1000	74.9249	67.6044	0.0000	4.1731	2.0000
160.2000	74.6988	67.3089	0.0000	4.1676	2.0000
160.3000	74.4727	67.0134	0.0000	4.1621	2.0000
160.4000	74.2466	66.7180	0.0000	4.1566	2.0000
160.5000	74.0205	66.4225	0.0000	4.1511	2.0000
160.6000	73.8149	66.1606	0.0000	4.1456	2.0000
160.7000	73.7936	66.2007	0.0000	4.1401	2.0000
160.8000	73.7722	66.2407	0.0000	4.1346	2.0000
160.9000	73.7509	66.2808	0.0000	4.1291	2.0000
161.0000	73.7296	66.3209	0.0000	4.1236	2.0000
161.1000	73.7083	66.3609	0.0000	4.1181	2.0000
161.2000	73.6870	66.4010	0.0000	4.1125	2.0000
161.3000	73.6656	66.4411	0.0000	4.1070	2.0000
161.4000	73.6777	66.5104	0.0000	4.1015	2.0000
161.5000	73.8233	66.6967	0.0000	4.0960	2.0000
161.6000	73.9689	66.8829	0.0000	4.0905	2.0000
161.7000	74.1145	67.0692	0.0000	4.0850	2.0000
161.8000	74.2601	67.2555	0.0000	4.0795	2.0000
161.9000	74.4058	67.4417	0.0000	4.0740	2.0000
162.0000	74.5514	67.6280	0.0000	4.0688	2.0000
162.1000	74.6970	67.8143	0.0000	4.0643	2.0000
162.2000	74.8426	68.0005	0.0000	4.0599	2.0000
162.3000	74.8341	68.0301	0.0000	4.0554	2.0000
162.4000	74.7963	68.0297	0.0000	4.0509	2.0000
162.5000	74.7584	68.0294	0.0000	4.0464	2.0000
162.6000	74.7206	68.0291	0.0000	4.0420	2.0000
162.7000	74.6827	68.0287	0.0000	4.0375	2.0000
162.8000	74.6449	68.0284	0.0000	4.0330	2.0000
162.9000	74.6070	68.0281	0.0000	4.0285	2.0000
163.0000	74.5692	68.0277	0.0000	4.0241	2.0000
163.1000	74.4795	67.9218	0.0000	4.0196	2.0000
163.2000	74.3419	67.7185	0.0000	4.0151	2.0000
163.3000	74.2043	67.5151	0.0000	4.0106	2.0000
163.4000	74.0668	67.3118	0.0000	4.0061	2.0000
163.5000	73.9292	67.1084	0.0000	4.0017	2.0000
163.6000	73.7916	66.9051	0.0000	3.9972	2.0000
163.7000	73.6541	66.7017	0.0000	3.9927	2.0000
163.8000	73.5165	66.4984	0.0000	3.9882	2.0000
163.9000	73.4178	66.3582	0.0000	3.9838	2.0000
164.0000	73.4100	66.3653	0.0000	3.9793	2.0000
164.1000	73.4021	66.3725	0.0000	3.9748	2.0000
164.2000	73.3943	66.3797	0.0000	3.9703	2.0000
164.3000	73.3865	66.3868	0.0000	3.9658	2.0000
164.4000	73.3786	66.3940	0.0000	3.9614	2.0000
164.5000	73.3708	66.4011	0.0000	3.9569	2.0000
164.6000	73.3629	66.4083	0.0000	3.9524	2.0000
164.7000	73.4670	66.5055	0.0000	3.9479	2.0000
164.8000	73.6922	66.7003	0.0000	3.9435	2.0000
164.9000	73.9174	66.8951	0.0000	3.9390	2.0000
165.0000	74.1426	67.0900	0.0000	3.9345	2.0000
165.1000	74.3679	67.2848	0.0000	3.9300	2.0000
165.2000	74.5931	67.4796	0.0000	3.9255	2.0000
165.3000	74.8183	67.6744	0.0000	3.9211	2.0000
165.4000	75.0435	67.8692	0.0000	3.9301	2.0000
165.5000	75.1928	67.9390	0.0000	3.9443	2.0000
165.6000	75.1806	67.7430	0.0000	3.9585	2.0000
165.7000	75.1684	67.5471	0.0000	3.9728	2.0000
165.8000	75.1562	67.3512	0.0000	3.9870	2.0000
165.9000	75.1440	67.1552	0.0000	4.0012	2.0000
166.0000	75.1318	66.9593	0.0000	4.0155	2.0000
166.1000	75.1196	66.7634	0.0000	4.0297	2.0000
166.2000	75.1074	66.5674	0.0000	4.0439	2.0000
166.3000	75.0952	66.3715	0.0000	4.0582	2.0000
166.4000	75.0361	66.1655	0.0000	4.0724	2.0000
166.5000	74.9174	65.9466	0.0000	4.0866	2.0000
166.6000	74.7987	65.7277	0.0000	4.1009	2.0000
166.7000	74.6800	65.5088	0.0000	4.1151	2.0000
166.8000	74.5613	65.2899	0.0000	4.1293	2.0000
166.9000	74.4426	65.0710	0.0000	4.1436	2.0000
167.0000	74.3240	64.8521	0.0000	4.1578	2.0000
167.1000	74.2053	64.6332	0.0000	4.1720	2.0000
167.2000	74.0866	64.4143	0.0000	4.1863	2.0000
167.3000	73.9476	64.2400	0.0000	4.2005	2.0000
167.4000	73.8035	64.0769	0.0000	4.2147	2.0000
167.5000	73.6594	63.9138	0.0000	4.2290	2.0000
167.6000	73.5153	63.7508	0.0000	4.2432	2.0000
167.7000	73.3712	63.5877	0.0000	4.2574	2.0000
167.8000	73.2271	63.4246	0.0000	4.2717	2.0000
167.9000	73.0831	63.2615	0.0000	4.2859	2.0000
168.0000	72.9390	63.0984	0.0000	4.3001	2.0000
168.1000	72.9108	63.0143	0.0000	4.3144	2.0000
168.2000	72.9736	62.9922	0.0000	4.3286	2.0000
168.3000	73.0364	62.9702	0.0000	4.3428	2.0000
168.4000	73.0992	62.9482	0.0000	4.3571	2.0000
168.5000	73.1620	62.9262	0.0000	4.3713	2.0000
168.6000	73.2248	62.9041	0.0000	4.3855	2.0000
168.7000	73.2877	62.8821	0.0000	4.3998	2.0000
168.8000	73.3505	62.8601	0.0000	4.4140	2.0000
168.9000	73.4986	62.9446	0.0000	4.4282	2.0000
169.0000	73.7037	63.1001	0.0000	4.4425	2.0000
169.1000	73.9088	63.2556	0.0000	4.4567	2.0000
169.2000	74.1139	63.4111	0.0000	4.4653	2.0000
169.3000	74.3189	63.5666	0.0000	4.4620	2.0000
169.4000	74.5240	63.7221	0.0000	4.4586	2.0000
169.5000	74.7291	63.8776	0.0000	4.4553	2.0000
169.6000	74.9341	64.0331	0.0000	4.4519	2.0000
169.7000	75.1392	64.1886	0.0000	4.4486	2.0000
169.8000	75.1343	64.1353	0.0000	4.4453	2.0000
169.9000	75.1205	64.0732	0.0000	4.4419	2.0000
170.0000	75.1068	64.0111	0.0000	4.4386	2.0000
170.1000	75.0931	63.9490	0.0000	4.4352	2.0000
170.2000	75.0794	63.8869	0.0000	4.4319	2.0000
170.3000	75.0657	63.8248	0.0000	4.4285	2.0000
170.4000	75.0520	63.7628	0.0000	4.4252	2.0000
170.5000	75.0383	63.7007	0.0000	4.4219	2.0000
170.6000	75.0246	63.6386	0.0000	4.4185	2.0000
170.7000	74.9776	63.4333	0.0000	4.4152	2.0000
170.8000	74.9224	63.1922	0.0000	4.4118	2.0000
170.9000	74.8672	62.9511	0.0000	4.4085	2.0000
171.0000	74.8120	62.7100	0.0000	4.4052	2.0000
171.1000	74.7568	62.4688	0.0000	4.4018	2.0000
171.2000	74.7016	62.2277	0.0000	4.3985	2.0000
171.3000	74.6463	61.9866	0.0000	4.3951	2.0000
171.4000	74.5911	61.7455	0.0000	4.3918	2.0000
171.5000	74.5359	61.5044	0.0000	4.3884	2.0000
171.6000	74.4600	61.2811	0.0000	4.3851	2.0000
171.7000	74.3813	61.0602	0.0000	4.3818	2.0000
171.8000	74.3026	60.8393	0.0000	4.3784	2.0000
171.9000	74.2239	60.6184	0.0000	4.3751	2.0000
172.0000	74.1452	60.3975	0.0000	4.3717	2.0000
172.1000	74.0665	60.1767	0.0000	4.3684	2.0000
172.2000	73.9878	59.9558	0.0000	4.3650	2.0000
172.3000	73.9091	59.7349	0.0000	4.3617	2.0000
172.4000	73.8693	59.6696	0.0000	4.3584	2.0000
172.5000	73.8878	59.8376	0.0000	4.3550	2.0000
172.6000	73.9062	60.0056	0.0000	4.3517	2.0000
172.7000	73.9247	60.1737	0.0000	4.3483	2.0000
172.8000	73.9432	60.3417	0.0000	4.3450	2.0000
172.9000	73.9616	60.5097	0.0000	4.3417	2.0000
173.0000	73.9801	60.6778	0.0000	4.3383	2.0000
173.1000	73.9986	60.8458	0.0000	4.3350	2.0000
173.2000	74.2670	61.1738	0.0000	4.3316	2.0000
173.3000	74.8063	61.6750	0.0000	4.3283	2.0000
173.4000	75.3455	62.1762	0.0000	4.3249	2.0000
173.5000	75.8848	62.6774	0.0000	4.3216	2.0000
173.6000	76.4240	63.1786	0.0000	4.3183	2.0000
173.7000	76.9633	63.6798	0.0000	4.3149	2.0000
173.8000	77.5025	64.1810	0.0000	4.3138	2.0000
173.9000	78.0418	64.6822	0.0000	4.3147	2.0000
174.0000	78.5049	65.0693	0.0000	4.3156	2.0000
174.1000	78.8200	65.2348	0.0000	4.3165	2.0000
174.2000	79.1351	65.4004	0.0000	4.3175	2.0000
174.3000	79.4502	65.5660	0.0000	4.3184	2.0000
174.4000	79.7653	65.7316	0.0000	4.3193	2.0000
174.5000	80.0804	65.8972	0.0000	4.3202	2.0000
174.6000	80.3955	66.0628	0.0000	4.3211	2.0000
174.7000	80.7106	66.2284	0.0000	4.3221	2.0000
174.8000	81.0257	66.3940	0.0000	4.3230	2.0000
174.9000	81.2037	66.4318	0.0000	4.3239	2.0000
175.0000	81.2740	66.3692	0.0000	4.3248	2.0000
175.1000	81.3444	66.3067	0.0000	4.3257	2.0000
175.2000	81.4147	66.2441	0.0000	4.3267	2.0000
175.3000	81.4850	66.1815	0.0000	4.3276	2.0000
175.4000	81.5554	66.1190	0.0000	4.3285	2.0000
175.5000	81.6257	66.0564	0.0000	4.3294	2.0000
175.6000	81.6960	65.9938	0.0000	4.3303	2.0000
175.7000	81.7664	65.9313	0.0000	4.3313	2.0000
175.8000	81.7130	65.7135	0.0000	4.3322	2.0000
175.9000	81.5899	65.4083	0.0000	4.3331	2.0000
176.0000	81.4669	65.1032	0.0000	4.3340	2.0000
176.1000	81.3439	64.7981	0.0000	4.3349	2.0000
176.2000	81.2209	64.4929	0.0000	4.3359	2.0000
176.3000	81.0979	64.1878	0.0000	4.3368	2.0000
176.4000	80.9749	63.8827	0.0000	4.3377	2.0000
176.5000	80.8519	63.5775	0.0000	4.3386	2.0000
176.6000	80.7288	63.2724	0.0000	4.3395	2.0000
176.7000	80.5429	62.9360	0.0000	4.3404	2.0000
176.8000	80.2988	62.5707	0.0000	4.3414	2.0000
176.9000	80.0546	62.2053	0.0000	4.3423	2.0000
177.0000	79.8105	61.8400	0.0000	4.3432	2.0000
177.1000	79.5664	61.4747	0.0000	4.3441	2.0000
177.2000	79.3223	61.1094	0.0000	4.3450	2.0000
177.3000	79.0782	60.7441	0.0000	4.3460	2.0000
177.4000	78.8341	60.3787	0.0000	4.3469	2.0000
177.5000	78.5900	60.0134	0.0000	4.3478	2.0000
177.6000	78.5486	60.0378	0.0000	4.3487	2.0000
177.7000	78.6026	60.2456	0.0000	4.3496	2.0000
177.8000	78.6567	60.4533	0.0000	4.3506	2.0000
177.9000	78.7107	60.6611	0.0000	4.3515	2.0000
178.0000	78.7647	60.8689	0.0000	4.3524	2.0000
178.1000	78.8188	61.0766	0.0000	4.3533	2.0000
178.2000	78.8728	61.2844	0.0000	4.3497	2.0000
178.3000	78.9268	61.4922	0.0000	4.3451	2.0000
178.4000	78.9809	61.6999	0.0000	4.3404	2.0000
178.5000	78.8807	61.7769	0.0000	4.3357	2.0000
178.6000	78.6689	61.7593	0.0000	4.3310	2.0000
178.7000	78.4571	61.7416	0.0000	4.3263	2.0000
178.8000	78.2453	61.7240	0.0000	4.3216	2.0000
178.9000	78.0335	61.7063	0.0000	4.3169	2.0000
179.0000	77.8216	61.6887	0.0000	4.3122	2.0000
179.1000	77.6098	61.6710	0.0000	4.3075	2.0000
179.2000	77.3980	61.6533	0.0000	4.3029	2.0000
179.3000	77.1862	61.6357	0.0000	4.2982	2.0000
179.4000	76.9744	61.6180	0.0000	4.2935	2.0000
179.5000	76.7167	61.4925	0.0000	4.2888	2.0000
179.6000	76.4445	61.3330	0.0000	4.2841	2.0000
179.7000	76.1722	61.1734	0.0000	4.2794	2.0000
179.8000	75.9000	61.0138	0.0000	4.2747	2.0000
179.9000	75.6278	60.8543	0.0000	4.2700	2.0000
180.0000	75.3556	60.6947	0.0000	4.2653	2.0000
180.1000	75.0834	60.5352	0.0000	4.2607	2.0000
180.2000	74.8112	60.3756	0.0000	4.2560	2.0000
180.3000	74.5390	60.2160	0.0000	4.2513	2.0000
180.4000	74.2768	60.0691	0.0000	4.2466	2.0000
180.5000	74.0254	59.9358	0.0000	4.2419	2.0000
180.6000	73.7740	59.8025	0.0000	4.2372	2.0000
180.7000	73.5225	59.6692	0.0000	4.2325	2.0000
180.8000	73.2711	59.5359	0.0000	4.2278	2.0000
180.9000	73.0197	59.4026	0.0000	4.2231	2.0000
181.0000	72.7683	59.2693	0.0000	4.2184	2.0000
181.1000	72.5169	59.1360	0.0000	4.2138	2.0000
181.2000	72.2655	59.0027	0.0000	4.2091	2.0000
181.3000	72.0418	58.9281	0.0000	4.2044	2.0000
181.4000	71.8632	58.9494	0.0000	4.1997	2.0000
181.5000	71.6847	58.9706	0.0000	4.1950	2.0000
181.6000	71.5061	58.9918	0.0000	4.1903	2.0000
181.7000	71.3275	59.0130	0.0000	4.1856	2.0000
181.8000	71.1490	59.0342	0.0000	4.1809	2.0000
181.9000	70.9704	59.0554	0.0000	4.1762	2.0000
182.0000	70.7918	59.0766	0.0000	4.1716	2.0000
182.1000	70.6132	59.0979	0.0000	4.1669	2.0000
182.2000	70.9485	59.6133	0.0000	4.1622	2.0000
182.3000	71.3285	60.1716	0.0000	4.1575	2.0000
182.4000	71.7084	60.7300	0.0000	4.1528	2.0000
182.5000	72.0884	61.2883	0.0000	4.1481	2.0000
182.6000	72.4683	61.8467	0.0000	4.1434	2.0000
182.7000	72.8483	62.4051	0.0000	4.1392	2.0000
182.8000	73.2282	62.9634	0.0000	4.1449	2.0000
182.9000	73.6082	63.5218	0.0000	4.1507	2.0000
183.0000	73.9626	63.9126	0.0000	4.1565	2.0000
183.1000	74.2915	64.1360	0.0000	4.1623	2.0000
183.2000	74.6205	64.3593	0.0000	4.1681	2.0000
183.3000	74.9494	64.5827	0.0000	4.1739	2.0000
183.4000	75.2783	64.8060	0.0000	4.1797	2.0000
183.5000	75.6073	65.0293	0.0000	4.1855	2.0000
183.6000	75.9362	65.2527	0.0000	4.1913	2.0000
183.7000	76.2651	65.4760	0.0000	4.1971	2.0000
183.8000	76.5940	65.6994	0.0000	4.2029	2.0000
183.9000	76.8276	65.8066	0.0000	4.2087	2.0000
184.0000	76.9657	65.7976	0.0000	4.2145	2.0000
184.1000	77.1038	65.7887	0.0000	4.2203	2.0000
184.2000	77.2419	65.7798	0.0000	4.2261	2.0000
184.3000	77.3800	65.7708	0.0000	4.2319	2.0000
184.4000	77.5181	65.7619	0.0000	4.2377	2.0000
184.5000	77.6562	65.7530	0.0000	4.2435	2.0000
184.6000	77.7943	65.7440	0.0000	4.2493	2.0000
184.7000	77.9324	65.7351	0.0000	4.2550	2.0000
184.8000	78.0661	65.7185	0.0000	4.2608	2.0000
184.9000	78.0932	65.5197	0.0000	4.2666	2.0000
185.0000	78.1203	65.3209	0.0000	4.2724	2.0000
185.1000	78.1474	65.1221	0.0000	4.2782	2.0000
185.2000	78.1745	64.9233	0.0000	4.2840	2.0000
185.3000	78.2016	64.7245	0.0000	4.2898	2.0000
185.4000	78.2287	64.5257	0.0000	4.2956	2.0000
185.5000	78.2557	64.3269	0.0000	4.3014	2.0000
185.6000	78.2828	64.1281	0.0000	4.3072	2.0000
185.7000	78.3099	63.9293	0.0000	4.3130	2.0000
185.8000	78.2609	63.7372	0.0000	4.3188	2.0000
185.9000	78.1358	63.5518	0.0000	4.3246	2.0000
186.0000	78.0107	63.3664	0.0000	4.3304	2.0000
186.1000	77.8856	63.1810	0.0000	4.3362	2.0000
186.2000	77.7605	62.9956	0.0000	4.3420	2.0000
186.3000	77.6353	62.8101	0.0000	4.3478	2.0000
186.4000	77.5102	62.6247	0.0000	4.3536	2.0000
186.5000	77.3851	62.4393	0.0000	4.3593	2.0000
186.6000	77.2600	62.2539	0.0000	4.3651	2.0000
186.7000	77.2485	62.1617	0.0000	4.3709	2.0000
186.8000	77.3940	62.1982	0.0000	4.3767	2.0000
186.9000	77.5394	62.2347	0.0000	4.3825	2.0000
187.0000	77.6849	62.2712	0.0000	4.3883	2.0000
187.1000	77.8303	62.3077	0.0000	4.3941	2.0000
187.2000	77.9758	62.3443	0.0000	4.3932	2.0000
187.3000	78.1213	62.3808	0.0000	4.3910	2.0000
187.4000	78.2667	62.4173	0.0000	4.3888	2.0000
187.5000	78.4122	62.4538	0.0000	4.3866	2.0000
187.6000	78.5310	62.4890	0.0000	4.3844	2.0000
187.7000	78.5741	62.5206	0.0000	4.3822	2.0000
187.8000	78.6172	62.5521	0.0000	4.3800	2.0000
187.9000	78.6603	62.5837	0.0000	4.3778	2.0000
188.0000	78.7034	62.6152	0.0000	4.3756	2.0000
188.1000	78.7465	62.6468	0.0000	4.3734	2.0000
188.2000	78.7896	62.6783	0.0000	4.3712	2.0000
188.3000	78.8326	62.7099	0.0000	4.3689	2.0000
188.4000	78.8757	62.7414	0.0000	4.3667	2.0000
188.5000	78.9188	62.7730	0.0000	4.3645	2.0000
188.6000	78.8595	62.7184	0.0000	4.3623	2.0000
188.7000	78.7260	62.6014	0.0000	4.3601	2.0000
188.8000	78.5924	62.4844	0.0000	4.3579	2.0000
188.9000	78.4589	62.3674	0.0000	4.3557	2.0000
189.0000	78.3254	62.2505	0.0000	4.3535	2.0000
189.1000	78.1919	62.1335	0.0000	4.3513	2.0000
189.2000	78.0583	62.0165	0.0000	4.3491	2.0000
189.3000	77.9248	61.8996	0.0000	4.3469	2.0000
189.4000	77.7913	61.7826	0.0000	4.3447	2.0000
189.5000	77.6578	61.6656	0.0000	4.3425	2.0000
189.6000	77.5069	61.4423	0.0000	4.3403	2.0000
189.7000	77.3561	61.2190	0.0000	4.3381	2.0000
189.8000	77.2053	60.9958	0.0000	4.3359	2.0000
189.9000	77.0545	60.7725	0.0000	4.3337	2.0000
190.0000	76.9037	60.5492	0.0000	4.3315	2.0000
190.1000	76.7529	60.3259	0.0000	4.3293	2.0000
190.2000	76.6021	60.1026	0.0000	4.3271	2.0000
190.3000	76.4512	59.8793	0.0000	4.3249	2.0000
190.4000	76.3004	59.6560	0.0000	4.3227	2.0000
190.5000	76.0898	59.5720	0.0000	4.3205	2.0000
190.6000	75.8661	59.5186	0.0000	4.3183	2.0000
190.7000	75.6423	59.4651	0.0000	4.3160	2.0000
190.8000	75.4186	59.4117	0.0000	4.3138	2.0000
190.9000	75.1949	59.3583	0.0000	4.3116	2.0000
191.0000	74.9711	59.3048	0.0000	4.3094	2.0000
191.1000	74.7474	59.2514	0.0000	4.3072	2.0000
191.2000	74.5237	59.1979	0.0000	4.3050	2.0000
191.3000	74.3456	59.1938	0.0000	4.3028	2.0000
191.4000	74.5023	59.5510	0.0000	4.3006	2.0000
191.5000	74.6591	59.9082	0.0000	4.2984	2.0000
191.6000	74.8158	60.2654	0.0000	4.2962	2.0000
191.7000	74.9726	60.6226	0.0000	4.2940	2.0000
191.8000	75.1293	60.9798	0.0000	4.2961	2.0000
191.9000	75.2861	61.3370	0.0000	4.2998	2.0000
192.0000	75.4428	61.6942	0.0000	4.3035	2.0000
192.1000	75.5996	62.0514	0.0000	4.3072	2.0000
192.2000	75.7970	62.3846	0.0000	4.3110	2.0000
192.3000	76.0135	62.7065	0.0000	4.3147	2.0000
192.4000	76.2300	63.0285	0.0000	4.3184	2.0000
192.5000	76.4466	63.3504	0.0000	4.3221	2.0000
192.6000	76.6631	63.6723	0.0000	4.3259	2.0000
192.7000	76.8797	63.9943	0.0000	4.3296	2.0000
192.8000	77.0962	64.3162	0.0000	4.3333	2.0000
192.9000	77.3127	64.6381	0.0000	4.3370	2.0000
193.0000	77.5293	64.9601	0.0000	4.3408	2.0000
193.1000	77.7427	65.3501	0.0000	4.3445	2.0000
193.2000	77.9527	65.8139	0.0000	4.3482	2.0000
193.3000	78.1627	66.2776	0.0000	4.3519	2.0000
193.4000	78.3727	66.7414	0.0000	4.3557	2.0000
193.5000	78.5827	67.2052	0.0000	4.3594	2.0000
193.6000	78.7927	67.6690	0.0000	4.3631	2.0000
193.7000	79.0027	68.1327	0.0000	4.3668	2.0000
193.8000	79.2127	68.5965	0.0000	4.3705	2.0000
193.9000	79.4227	69.0603	0.0000	4.3743	2.0000
194.0000	79.6486	69.2237	0.0000	4.3780	2.0000
194.1000	79.8812	69.2583	0.0000	4.3817	2.0000
194.2000	80.1138	69.2929	0.0000	4.3854	2.0000
194.3000	80.3464	69.3275	0.0000	4.3892	2.0000
194.4000	80.5790	69.3621	0.0000	4.3929	2.0000
194.5000	80.8117	69.3967	0.0000	4.3966	2.0000
194.6000	81.0443	69.4313	0.0000	4.4003	2.0000
194.7000	81.2769	69.4659	0.0000	4.4041	2.0000
194.8000	81.3732	69.4121	0.0000	4.4078	2.0000
194.9000	81.3437	69.2768	0.0000	4.4115	2.0000
195.0000	81.3142	69.1415	0.0000	4.4152	2.0000
195.1000	81.2847	69.0061	0.0000	4.4190	2.0000
195.2000	81.2553	68.8708	0.0000	4.4227	2.0000
195.3000	81.2258	68.7355	0.0000	4.4264	2.0000
195.4000	81.1963	68.6001	0.0000	4.4301	2.0000
195.5000	81.1668	68.4648	0.0000	4.4339	2.0000
195.6000	81.3629	68.7365	0.0000	4.4376	2.0000
195.7000	81.6303	69.1366	0.0000	4.4413	2.0000
195.8000	81.8977	69.5368	0.0000	4.4450	2.0000
195.9000	82.1651	69.9370	0.0000	4.4487	2.0000
196.0000	82.4325	70.3372	0.0000	4.4525	2.0000
196.1000	82.6999	70.7373	0.0000	4.4562	2.0000
196.2000	82.9673	71.1375	0.0000	4.4599	2.0000
196.3000	83.2592	71.5638	0.0000	4.4636	2.0000
196.4000	83.6286	72.0729	0.0000	4.4674	2.0000
196.5000	83.9980	72.5819	0.0000	4.4711	2.0000
196.6000	84.3673	73.0910	0.0000	4.4748	2.0000
196.7000	84.7367	73.6000	0.0000	4.4785	2.0000
196.8000	85.1061	74.1091	0.0000	4.4820	2.0000
196.9000	85.4755	74.6182	0.0000	4.4852	2.0000
197.0000	85.8448	75.1272	0.0000	4.4883	2.0000
197.1000	85.8880	74.8290	0.0000	4.4914	2.0000
197.2000	85.9104	74.4792	0.0000	4.4946	2.0000
197.3000	85.9328	74.1295	0.0000	4.4977	2.0000
197.4000	85.9552	73.7797	0.0000	4.5009	2.0000
197.5000	85.9776	73.4300	0.0000	4.5040	2.0000
197.6000	86.0000	73.0802	0.0000	4.5071	2.0000
197.7000	86.0224	72.7304	0.0000	4.5103	2.0000
197.8000	85.8405	72.2280	0.0000	4.5134	2.0000
197.9000	85.3985	71.5312	0.0000	4.5165	2.0000
198.0000	84.9566	70.8344	0.0000	4.5197	2.0000
198.1000	84.5146	70.1377	0.0000	4.5228	2.0000
198.2000	84.0727	69.4409	0.0000	4.5260	2.0000
198.3000	83.6308	68.7441	0.0000	4.5291	2.0000
198.4000	83.1888	68.0473	0.0000	4.5322	2.0000
198.5000	82.7469	67.3505	0.0000	4.5354	2.0000
198.6000	82.3050	66.6537	0.0000	4.5385	2.0000
198.7000	81.8530	66.0796	0.0000	4.5416	2.0000
198.8000	81.3938	65.5943	0.0000	4.5448	2.0000
198.9000	80.9346	65.1091	0.0000	4.5479	2.0000
199.0000	80.4754	64.6238	0.0000	4.5511	2.0000
199.1000	80.0162	64.1385	0.0000	4.5542	2.0000
199.2000	79.5570	63.6532	0.0000	4.5573	2.0000
199.3000	79.0978	63.1679	0.0000	4.5605	2.0000
199.4000	78.6386	62.6826	0.0000	4.5636	2.0000
199.5000	78.1794	62.1973	0.0000	4.5667	2.0000
199.6000	77.7214	61.8616	0.0000	4.5699	2.0000
199.7000	77.2647	61.6878	0.0000	4.5730	2.0000
199.8000	76.8080	61.5141	0.0000	4.5762	2.0000
199.9000	76.3512	61.3404	0.0000	4.5793	2.0000
200.0000	75.8945	61.1666	0.0000	4.5824	2.0000
200.1000	75.4378	60.9929	0.0000	4.5856	2.0000
200.2000	74.9810	60.8191	0.0000	4.5887	2.0000
200.3000	74.5243	60.6454	0.0000	4.5918	2.0000
200.4000	74.0676	60.4716	0.0000	4.5950	2.0000
200.5000	73.8872	60.5532	0.0000	4.5981	2.0000
200.6000	73.7375	60.6633	0.0000	4.6013	2.0000
200.7000	73.5878	60.7733	0.0000	4.6044	2.0000
200.8000	73.4381	60.8833	0.0000	4.6075	2.0000
200.9000	73.2885	60.9933	0.0000	4.6107	2.0000
201.0000	73.1388	61.1033	0.0000	4.6138	2.0000
201.1000	72.9891	61.2133	0.0000	4.6170	2.0000
201.2000	72.8394	61.3233	0.0000	4.6201	2.0000
201.3000	72.7765	61.4374	0.0000	4.6232	2.0000
201.4000	72.7439	61.5530	0.0000	4.6264	2.0000
201.5000	72.7114	61.6686	0.0000	4.6295	2.0000
201.6000	72.6789	61.7842	0.0000	4.6284	2.0000
201.7000	72.6464	61.8997	0.0000	4.6273	2.0000
201.8000	72.6138	62.0153	0.0000	4.6262	2.0000
201.9000	72.5813	62.1309	0.0000	4.6251	2.0000
202.0000	72.5488	62.2465	0.0000	4.6239	2.0000
202.1000	72.5034	62.3189	0.0000	4.6228	2.0000
202.2000	72.3788	62.1261	0.0000	4.6217	2.0000
202.3000	72.2542	61.9333	0.0000	4.6206	2.0000
202.4000	72.1296	61.7405	0.0000	4.6195	2.0000
202.5000	72.0050	61.5477	0.0000	4.6184	2.0000
202.6000	71.8804	61.3549	0.0000	4.6173	2.0000
202.7000	71.7558	61.1621	0.0000	4.6162	2.0000
202.8000	71.6313	60.9693	0.0000	4.6151	2.0000
202.9000	71.5067	60.7765	0.0000	4.6139	2.0000
203.0000	71.3821	60.5837	0.0000	4.6128	2.0000
203.1000	71.3078	60.5191	0.0000	4.6117	2.0000
203.2000	71.2336	60.4545	0.0000	4.6106	2.0000
203.3000	71.1593	60.3899	0.0000	4.6095	2.0000
203.4000	71.0850	60.3253	0.0000	4.6084	2.0000
203.5000	71.0108	60.2607	0.0000	4.6073	2.0000
203.6000	70.9365	60.1961	0.0000	4.6062	2.0000
203.7000	70.8622	60.1315	0.0000	4.6051	2.0000
203.8000	70.7880	60.0669	0.0000	4.6039	2.0000
203.9000	70.7200	60.0144	0.0000	4.6028	2.0000
204.0000	70.6771	60.0099	0.0000	4.6017	2.0000
204.1000	70.6342	60.0055	0.0000	4.6006	2.0000
204.2000	70.5913	60.0010	0.0000	4.5995	2.0000
204.3000	70.5484	59.9966	0.0000	4.5984	2.0000
204.4000	70.5055	59.9921	0.0000	4.5973	2.0000
204.5000	70.4626	59.9877	0.0000	4.5962	2.0000
204.6000	70.4197	59.9832	0.0000	4.5950	2.0000
204.7000	70.3768	59.9788	0.0000	4.5939	2.0000
204.8000	70.3548	60.0379	0.0000	4.5928	2.0000
204.9000	70.3507	60.1513	0.0000	4.5917	2.0000
205.0000	70.3466	60.2647	0.0000	4.5906	2.0000
205.1000	70.3425	60.3781	0.0000	4.5895	2.0000
205.2000	70.3384	60.4914	0.0000	4.5884	2.0000
205.3000	70.3343	60.6048	0.0000	4.5873	2.0000
205.4000	70.3302	60.7182	0.0000	4.5862	2.0000
205.5000	70.3261	60.8316	0.0000	4.5850	2.0000
205.6000	70.3717	61.0094	0.0000	4.5839	2.0000
205.7000	70.7817	61.6598	0.0000	4.5828	2.0000
205.8000	71.1917	62.3101	0.0000	4.5817	2.0000
205.9000	71.6017	62.9605	0.0000	4.5806	2.0000
206.0000	72.0117	63.6109	0.0000	4.5795	2.0000
206.1000	72.4218	64.2612	0.0000	4.5784	2.0000
206.2000	72.8318	64.9116	0.0000	4.5773	2.0000
206.3000	73.2418	65.5620	0.0000	4.5762	2.0000
206.4000	73.6518	66.2124	0.0000	4.5751	2.0000
206.5000	74.0032	66.3854	0.0000	4.5742	2.0000
206.6000	74.3523	66.5385	0.0000	4.5733	2.0000
206.7000	74.7013	66.6916	0.0000	4.5723	2.0000
206.8000	75.0504	66.8448	0.0000	4.5714	2.0000
206.9000	75.3994	66.9979	0.0000	4.5704	2.0000
207.0000	75.7484	67.1510	0.0000	4.5695	2.0000
207.1000	76.0975	67.3041	0.0000	4.5685	2.0000
207.2000	76.4465	67.4572	0.0000	4.5676	2.0000
207.3000	76.7252	67.5172	0.0000	4.5667	2.0000
207.4000	76.6833	67.1529	0.0000	4.5657	2.0000
207.5000	76.6414	66.7886	0.0000	4.5648	2.0000
207.6000	76.5994	66.4243	0.0000	4.5638	2.0000
207.7000	76.5575	66.0600	0.0000	4.5629	2.0000
207.8000	76.5156	65.6957	0.0000	4.5620	2.0000
207.9000	76.4737	65.3314	0.0000	4.5610	2.0000
208.0000	76.4318	64.9671	0.0000	4.5601	2.0000
208.1000	76.3898	64.6027	0.0000	4.5591	2.0000
208.2000	76.3479	64.2384	0.0000	4.5582	2.0000
208.3000	76.3060	63.8741	0.0000	4.5572	2.0000
208.4000	76.1849	63.4597	0.0000	4.5563	2.0000
208.5000	76.0387	63.0295	0.0000	4.5554	2.0000
208.6000	75.8925	62.5994	0.0000	4.5544	2.0000
208.7000	75.7463	62.1692	0.0000	4.5535	2.0000
208.8000	75.6001	61.7390	0.0000	4.5525	2.0000
208.9000	75.4539	61.3088	0.0000	4.5516	2.0000
209.0000	75.3078	60.8786	0.0000	4.5507	2.0000
209.1000	75.1616	60.4484	0.0000	4.5497	2.0000
209.2000	75.0154	60.0182	0.0000	4.5488	2.0000
209.3000	74.8692	59.5880	0.0000	4.5478	2.0000
209.4000	74.7144	59.4799	0.0000	4.5469	2.0000
209.5000	74.5556	59.5235	0.0000	4.5459	2.0000
209.6000	74.3967	59.5670	0.0000	4.5450	2.0000
209.7000	74.2379	59.6105	0.0000	4.5441	2.0000
209.8000	74.0790	59.6540	0.0000	4.5431	2.0000
209.9000	73.9201	59.6976	0.0000	4.5422	2.0000
210.0000	73.7613	59.7411	0.0000	4.5412	2.0000
210.1000	73.6024	59.7846	0.0000	4.5403	2.0000
210.2000	73.4436	59.8281	0.0000	4.5394	2.0000
210.3000	73.2847	59.8716	0.0000	4.5384	2.0000
210.4000	73.0259	59.7474	0.0000	4.5375	2.0000
210.5000	72.7534	59.6002	0.0000	4.5365	2.0000
210.6000	72.4809	59.4531	0.0000	4.5356	2.0000
210.7000	72.2084	59.3059	0.0000	4.5346	2.0000
210.8000	71.9359	59.1588	0.0000	4.5337	2.0000
210.9000	71.6634	59.0116	0.0000	4.5328	2.0000
211.0000	71.3910	58.8645	0.0000	4.5318	2.0000
211.1000	71.1185	58.7173	0.0000	4.5309	2.0000
211.2000	70.8460	58.5701	0.0000	4.5299	2.0000
211.3000	70.7716	58.6170	0.0000	4.5290	2.0000
211.4000	70.7598	58.7252	0.0000	4.5281	2.0000
211.5000	70.7479	58.8334	0.0000	4.5271	2.0000
211.6000	70.7361	58.9416	0.0000	4.5262	2.0000
211.7000	70.7243	59.0498	0.0000	4.5252	2.0000
211.8000	70.7125	59.1580	0.0000	4.5243	2.0000
211.9000	70.7006	59.2661	0.0000	4.5221	2.0000
212.0000	70.6888	59.3743	0.0000	4.5184	2.0000
212.1000	70.6770	59.4825	0.0000	4.5147	2.0000
212.2000	70.6669	59.5284	0.0000	4.5111	2.0000
212.3000	70.6578	59.5392	0.0000	4.5074	2.0000
212.4000	70.6488	59.5500	0.0000	4.5037	2.0000
212.5000	70.6397	59.5609	0.0000	4.5000	2.0000
212.6000	70.6306	59.5717	0.0000	4.4963	2.0000
212.7000	70.6215	59.5825	0.0000	4.4926	2.0000
212.8000	70.6125	59.5933	0.0000	4.4889	2.0000
212.9000	70.6034	59.6042	0.0000	4.4852	2.0000
213.0000	70.5943	59.6150	0.0000	4.4815	2.0000
213.1000	70.5853	59.6258	0.0000	4.4778	2.0000
213.2000	70.5448	59.5731	0.0000	4.4741	2.0000
213.3000	70.5017	59.5148	0.0000	4.4704	2.0000
213.4000	70.4586	59.4566	0.0000	4.4667	2.0000
213.5000	70.4154	59.3983	0.0000	4.4631	2.0000
213.6000	70.3723	59.3401	0.0000	4.4594	2.0000
213.7000	70.3292	59.2818	0.0000	4.4557	2.0000
213.8000	70.2860	59.2236	0.0000	4.4520	2.0000
213.9000	70.2429	59.1653	0.0000	4.4483	2.0000
214.0000	70.1998	59.1071	0.0000	4.4446	2.0000
214.1000	70.1566	59.0488	0.0000	4.4409	2.0000
214.2000	70.0301	59.0076	0.0000	4.4372	2.0000
214.3000	69.8943	58.9682	0.0000	4.4335	2.0000
214.4000	69.7585	58.9287	0.0000	4.4298	2.0000
214.5000	69.6227	58.8893	0.0000	4.4261	2.0000
214.6000	69.4870	58.8499	0.0000	4.4224	2.0000
214.7000	69.3512	58.8105	0.0000	4.4187	2.0000
214.8000	69.2154	58.7711	0.0000	4.4151	2.0000
214.9000	69.0796	58.7317	0.0000	4.4114	2.0000
215.0000	68.9438	58.6923	0.0000	4.4077	2.0000
215.1000	68.8741	58.6316	0.0000	4.4040	2.0000
215.2000	68.8706	58.5495	0.0000	4.4003	2.0000
215.3000	68.8671	58.4674	0.0000	4.3966	2.0000
215.4000	68.8636	58.3854	0.0000	4.3929	2.0000
215.5000	68.8600	58.3033	0.0000	4.3892	2.0000
215.6000	68.8565	58.2212	0.0000	4.3855	2.0000
215.7000	68.8530	58.1391	0.0000	4.3818	2.0000
215.8000	68.8495	58.0571	0.0000	4.3781	2.0000
215.9000	68.8459	57.9750	0.0000	4.3744	2.0000
216.0000	69.0231	58.1973	0.0000	4.3707	2.0000
216.1000	69.3110	58.6062	0.0000	4.3671	2.0000
216.2000	69.5990	59.0151	0.0000	4.3634	2.0000
216.3000	69.8869	59.4240	0.0000	4.3597	2.0000
216.4000	70.1748	59.8329	0.0000	4.3488	2.0000
216.5000	70.4628	60.2417	0.0000	4.3356	2.0000
216.6000	70.7507	60.6506	0.0000	4.3225	2.0000
216.7000	71.0386	61.0595	0.0000	4.3093	2.0000
216.8000	71.3266	61.4684	0.0000	4.2962	2.0000
216.9000	71.5078	61.8176	0.0000	4.2830	2.0000
217.0000	71.3107	61.9554	0.0000	4.2699	2.0000
217.1000	71.1135	62.0931	0.0000	4.2567	2.0000
217.2000	70.9164	62.2309	0.0000	4.2436	2.0000
217.3000	70.7192	62.3686	0.0000	4.2304	2.0000
217.4000	70.5221	62.5064	0.0000	4.2173	2.0000
217.5000	70.3250	62.6441	0.0000	4.2041	2.0000
217.6000	70.1278	62.7819	0.0000	4.1910	2.0000
217.7000	69.9307	62.9197	0.0000	4.1778	2.0000
217.8000	69.7336	63.0574	0.0000	4.1647	2.0000
217.9000	69.5912	63.1076	0.0000	4.1515	2.0000
218.0000	69.5130	63.0551	0.0000	4.1383	2.0000
218.1000	69.4349	63.0026	0.0000	4.1252	2.0000
218.2000	69.3568	62.9500	0.0000	4.1120	2.0000
218.3000	69.2786	62.8975	0.0000	4.0989	2.0000
218.4000	69.2005	62.8450	0.0000	4.0857	2.0000
218.5000	69.1224	62.7925	0.0000	4.0726	2.0000
218.6000	69.0442	62.7399	0.0000	4.0594	2.0000
218.7000	68.9661	62.6874	0.0000	4.0463	2.0000
218.8000	68.9824	62.6843	0.0000	4.0331	2.0000
218.9000	69.1993	62.7864	0.0000	4.0200	2.0000
219.0000	69.4161	62.8884	0.0000	4.0068	2.0000
219.1000	69.6330	62.9905	0.0000	3.9937	2.0000
219.2000	69.8499	63.0925	0.0000	3.9805	2.0000
219.3000	70.0668	63.1945	0.0000	3.9674	2.0000
219.4000	70.2837	63.2966	0.0000	3.9542	2.0000
219.5000	70.5006	63.3986	0.0000	3.9411	2.0000
219.6000	70.5120	63.5007	0.0000	3.9279	2.0000
219.7000	70.5234	63.6027	0.0000	3.9148	2.0000
219.8000	70.5348	63.4153	0.0000	3.9211	2.0000
219.9000	70.5462	63.1957	0.0000	3.9365	2.0000
220.0000	70.5576	62.9761	0.0000	3.9520	2.0000
220.1000	70.5690	62.7565	0.0000	3.9674	2.0000
220.2000	70.5804	62.5369	0.0000	3.9829	2.0000
220.3000	70.5918	62.3173	0.0000	3.9984	2.0000
220.4000	70.6032	62.0977	0.0000	4.0138	2.0000
220.5000	70.6146	61.8781	0.0000	4.0293	2.0000
220.6000	70.6260	61.6584	0.0000	4.0448	2.0000
220.7000	70.6374	61.4388	0.0000	4.0602	2.0000
220.8000	70.6488	61.3439	0.0000	4.0757	2.0000
220.9000	70.6602	61.2764	0.0000	4.0911	2.0000
221.0000	70.6716	61.2089	0.0000	4.1066	2.0000
221.1000	70.6830	61.1413	0.0000	4.1221	2.0000
221.2000	70.6944	61.0738	0.0000	4.1375	2.0000
221.3000	70.7058	61.0063	0.0000	4.1530	2.0000
221.4000	70.7172	60.9387	0.0000	4.1684	2.0000
221.5000	70.7286	60.8712	0.0000	4.1839	2.0000
221.6000	70.7400	60.8037	0.0000	4.1994	2.0000
221.7000	70.7514	60.7337	0.0000	4.2148	2.0000
221.8000	70.7628	60.6062	0.0000	4.2303	2.0000
221.9000	70.7742	60.4787	0.0000	4.2457	2.0000
222.0000	70.7856	60.3513	0.0000	4.2612	2.0000
222.1000	70.7970	60.2238	0.0000	4.2767	2.0000
222.2000	70.8084	60.0963	0.0000	4.2921	2.0000
222.3000	70.8198	59.9688	0.0000	4.3076	2.0000
222.4000	70.8312	59.8413	0.0000	4.3231	2.0000
222.5000	70.8426	59.7138	0.0000	4.3385	2.0000
222.6000	70.8540	59.5863	0.0000	4.3540	2.0000
222.7000	70.8654	59.7124	0.0000	4.3694	2.0000
222.8000	71.0729	59.8798	0.0000	4.3849	2.0000
222.9000	71.2804	60.0471	0.0000	4.4004	2.0000
223.0000	71.4879	60.2145	0.0000	4.4158	2.0000
223.1000	71.6954	60.3819	0.0000	4.4313	2.0000
223.2000	71.9030	60.5492	0.0000	4.4467	2.0000
223.3000	72.1105	60.7166	0.0000	4.4622	2.0000
223.4000	72.3180	60.8839	0.0000	4.4777	2.0000
223.5000	72.5255	61.0513	0.0000	4.4931	2.0000
223.6000	72.7243	61.3973	0.0000	4.5086	2.0000
223.7000	72.9231	61.7433	0.0000	4.5161	2.0000
223.8000	73.1219	62.0892	0.0000	4.5150	2.0000
223.9000	73.3208	62.4352	0.0000	4.5139	2.0000
224.0000	73.5196	62.7812	0.0000	4.5128	2.0000
224.1000	73.7184	63.1272	0.0000	4.5117	2.0000
224.2000	73.9172	63.4731	0.0000	4.5107	2.0000
224.3000	74.1160	63.8191	0.0000	4.5096	2.0000
224.4000	74.3149	64.1651	0.0000	4.5085	2.0000
224.5000	74.4755	64.4222	0.0000	4.5074	2.0000
224.6000	74.6228	64.6481	0.0000	4.5063	2.0000
224.7000	74.7701	64.8739	0.0000	4.5052	2.0000
224.8000	74.9174	65.0998	0.0000	4.5041	2.0000
224.9000	75.0646	65.3257	0.0000	4.5030	2.0000
225.0000	75.2119	65.5515	0.0000	4.5020	2.0000
225.1000	75.3592	65.7774	0.0000	4.5009	2.0000
225.2000	75.5065	66.0033	0.0000	4.4998	2.0000
225.3000	75.6538	66.2292	0.0000	4.4987	2.0000
225.4000	75.7824	66.3273	0.0000	4.4976	2.0000
225.5000	75.8715	66.1540	0.0000	4.4965	2.0000
225.6000	75.9607	65.9807	0.0000	4.4954	2.0000
225.7000	76.0498	65.8074	0.0000	4.4943	2.0000
225.8000	76.1389	65.6341	0.0000	4.4932	2.0000
225.9000	76.2280	65.4608	0.0000	4.4922	2.0000
226.0000	76.3171	65.2875	0.0000	4.4911	2.0000
226.1000	76.4063	65.1142	0.0000	4.4900	2.0000
226.2000	76.4954	64.9409	0.0000	4.4889	2.0000
226.3000	76.5845	64.7676	0.0000	4.4878	2.0000
226.4000	76.6115	64.8945	0.0000	4.4867	2.0000
226.5000	76.6359	65.0339	0.0000	4.4856	2.0000
226.6000	76.6602	65.1733	0.0000	4.4845	2.0000
226.7000	76.6846	65.3126	0.0000	4.4835	2.0000
226.8000	76.7090	65.4520	0.0000	4.4824	2.0000
226.9000	76.7334	65.5914	0.0000	4.4813	2.0000
227.0000	76.7578	65.7308	0.0000	4.4802	2.0000
227.1000	76.7822	65.8702	0.0000	4.4791	2.0000
227.2000	76.8152	66.0025	0.0000	4.4780	2.0000
227.3000	77.0542	65.9654	0.0000	4.4769	2.0000
227.4000	77.2932	65.9282	0.0000	4.4758	2.0000
227.5000	77.5322	65.8911	0.0000	4.4748	2.0000
227.6000	77.7712	65.8539	0.0000	4.4737	2.0000
227.7000	78.0102	65.8168	0.0000	4.4726	2.0000
227.8000	78.2492	65.7796	0.0000	4.4715	2.0000
227.9000	78.4883	65.7425	0.0000	4.4624	2.0000
228.0000	78.7273	65.7054	0.0000	4.4507	2.0000
228.1000	78.9663	65.6682	0.0000	4.4391	2.0000
228.2000	79.0081	65.5790	0.0000	4.4274	2.0000
228.3000	78.9071	65.4521	0.0000	4.4157	2.0000
228.4000	78.8061	65.3251	0.0000	4.4041	2.0000
228.5000	78.7052	65.1982	0.0000	4.3924	2.0000
228.6000	78.6042	65.0713	0.0000	4.3808	2.0000
228.7000	78.5032	64.9443	0.0000	4.3691	2.0000
228.8000	78.4022	64.8174	0.0000	4.3575	2.0000
228.9000	78.3012	64.6904	0.0000	4.3458	2.0000
229.0000	78.2002	64.5635	0.0000	4.3342	2.0000
229.1000	78.0993	64.4366	0.0000	4.3225	2.0000
229.2000	77.9030	64.2131	0.0000	4.3109	2.0000
229.3000	77.6036	63.8852	0.0000	4.2992	2.0000
229.4000	77.3042	63.5572	0.0000	4.2875	2.0000
229.5000	77.0047	63.2293	0.0000	4.2759	2.0000
229.6000	76.7053	62.9013	0.0000	4.2642	2.0000
229.7000	76.4059	62.5734	0.0000	4.2526	2.0000
229.8000	76.1065	62.2454	0.0000	4.2409	2.0000
229.9000	75.8070	61.9175	0.0000	4.2293	2.0000
230.0000	75.5076	61.5895	0.0000	4.2176	2.0000
230.1000	75.2385	61.3110	0.0000	4.2060	2.0000
230.2000	75.1553	61.3357	0.0000	4.1943	2.0000
230.3000	75.0721	61.3605	0.0000	4.1826	2.0000
230.4000	74.9890	61.3852	0.0000	4.1710	2.0000
230.5000	74.9058	61.4100	0.0000	4.1593	2.0000
230.6000	74.8226	61.4347	0.0000	4.1477	2.0000
230.7000	74.7395	61.4595	0.0000	4.1360	2.0000
230.8000	74.6563	61.4842	0.0000	4.1244	2.0000
230.9000	74.5732	61.5090	0.0000	4.1127	2.0000
231.0000	74.4900	61.5337	0.0000	4.1011	2.0000
231.1000	74.3936	61.5433	0.0000	4.0905	2.0000
231.2000	74.2898	61.5443	0.0000	4.0813	2.0000
231.3000	74.1860	61.5453	0.0000	4.0720	2.0000
231.4000	74.0822	61.5463	0.0000	4.0627	2.0000
231.5000	73.9784	61.5473	0.0000	4.0534	2.0000
231.6000	73.8746	61.5483	0.0000	4.0441	2.0000
231.7000	73.7708	61.5493	0.0000	4.0348	2.0000
231.8000	73.6670	61.5503	0.0000	4.0255	2.0000
231.9000	73.5632	61.5513	0.0000	4.0162	2.0000
232.0000	73.4594	61.5523	0.0000	4.0069	2.0000
232.1000	73.2654	61.5063	0.0000	3.9976	2.0000
232.2000	73.0113	61.4289	0.0000	3.9884	2.0000
232.3000	72.7571	61.3514	0.0000	3.9791	2.0000
232.4000	72.5030	61.2740	0.0000	3.9698	2.0000
232.5000	72.2488	61.1966	0.0000	3.9605	2.0000
232.6000	71.9946	61.1192	0.0000	3.9512	2.0000
232.7000	71.7405	61.0418	0.0000	3.9419	2.0000
232.8000	71.4863	60.9643	0.0000	3.9326	2.0000
232.9000	71.2322	60.8869	0.0000	3.9233	2.0000
233.0000	70.9780	60.8095	0.0000	3.9140	2.0000
233.1000	70.9816	60.7773	0.0000	3.9047	2.0000
233.2000	70.9852	60.7451	0.0000	3.8954	2.0000
233.3000	70.9888	60.7128	0.0000	3.8862	2.0000
233.4000	70.9924	60.6806	0.0000	3.8769	2.0000
233.5000	70.9960	60.6484	0.0000	3.8676	2.0000
233.6000	70.9996	60.6162	0.0000	3.8583	2.0000
233.7000	71.0032	60.5839	0.0000	3.8490	2.0000
233.8000	71.0068	60.5517	0.0000	3.8397	2.0000
233.9000	71.0104	60.5195	0.0000	3.8304	2.0000
234.0000	71.2415	60.7702	0.0000	3.8211	2.0000
234.1000	71.5702	61.1421	0.0000	3.8118	2.0000
234.2000	71.8988	61.5140	0.0000	3.8114	2.0000
234.3000	72.2275	61.8859	0.0000	3.8158	2.0000
234.4000	72.5561	62.2578	0.0000	3.8203	2.0000
234.5000	72.8848	62.6298	0.0000	3.8248	2.0000
234.6000	73.2134	63.0017	0.0000	3.8293	2.0000
234.7000	73.5421	63.3736	0.0000	3.8338	2.0000
234.8000	73.8707	63.7455	0.0000	3.8383	2.0000
234.9000	74.1931	64.1017	0.0000	3.8428	2.0000
235.0000	74.4177	64.2116	0.0000	3.8473	2.0000
235.1000	74.6422	64.3215	0.0000	3.8517	2.0000
235.2000	74.8668	64.4314	0.0000	3.8562	2.0000
235.3000	75.0914	64.5413	0.0000	3.8607	2.0000
235.4000	75.3159	64.6512	0.0000	3.8652	2.0000
235.5000	75.5405	64.7610	0.0000	3.8697	2.0000
235.6000	75.7651	64.8709	0.0000	3.8742	2.0000
235.7000	75.9896	64.9808	0.0000	3.8787	2.0000
235.8000	76.2142	65.0907	0.0000	3.8832	2.0000
235.9000	76.3809	65.1289	0.0000	3.8876	2.0000
236.0000	76.3987	64.9829	0.0000	3.8921	2.0000
236.1000	76.4166	64.8369	0.0000	3.8966	2.0000
236.2000	76.4344	64.6909	0.0000	3.9011	2.0000
236.3000	76.4523	64.5448	0.0000	3.9056	2.0000
236.4000	76.4701	64.3988	0.0000	3.9101	2.0000
236.5000	76.4880	64.2528	0.0000	3.9146	2.0000
236.6000	76.5058	64.1068	0.0000	3.9191	2.0000
236.7000	76.5237	63.9607	0.0000	3.9235	2.0000
236.8000	76.5859	63.8994	0.0000	3.9280	2.0000
236.9000	76.7744	64.0789	0.0000	3.9325	2.0000
237.0000	76.9630	64.2585	0.0000	3.9370	2.0000
237.1000	77.1515	64.4381	0.0000	3.9415	2.0000
237.2000	77.3401	64.6176	0.0000	3.9460	2.0000
237.3000	77.5286	64.7972	0.0000	3.9505	2.0000
237.4000	77.7172	64.9768	0.0000	3.9550	2.0000
237.5000	77.9057	65.1563	0.0000	3.9594	2.0000
237.6000	78.0942	65.3359	0.0000	3.9639	2.0000
237.7000	78.2924	65.4698	0.0000	3.9684	2.0000
237.8000	78.5131	65.4971	0.0000	3.9757	2.0000
237.9000	78.7337	65.5243	0.0000	3.9870	2.0000
238.0000	78.9544	65.5516	0.0000	3.9984	2.0000
238.1000	79.1750	65.5789	0.0000	4.0098	2.0000
238.2000	79.3957	65.6062	0.0000	4.0212	2.0000
238.3000	79.6163	65.6335	0.0000	4.0326	2.0000
238.4000	79.8370	65.6607	0.0000	4.0440	2.0000
238.5000	80.0576	65.6880	0.0000	4.0553	2.0000
238.6000	80.2783	65.7153	0.0000	4.0667	2.0000
238.7000	80.3251	65.6205	0.0000	4.0781	2.0000
238.8000	80.2653	65.4509	0.0000	4.0895	2.0000
238.9000	80.2055	65.2814	0.0000	4.1009	2.0000
239.0000	80.1457	65.1118	0.0000	4.1123	2.0000
239.1000	80.0859	64.9422	0.0000	4.1236	2.0000
239.2000	80.0262	64.7726	0.0000	4.1350	2.0000
239.3000	79.9664	64.6030	0.0000	4.1464	2.0000
239.4000	79.9066	64.4334	0.0000	4.1578	2.0000
239.5000	79.8468	64.2639	0.0000	4.1692	2.0000
239.6000	79.7870	64.0943	0.0000	4.1806	2.0000
239.7000	79.6269	63.9136	0.0000	4.1919	2.0000
239.8000	79.4416	63.7302	0.0000	4.2033	2.0000
239.9000	79.2564	63.5469	0.0000	4.2147	2.0000
240.0000	79.0712	63.3635	0.0000	4.2261	2.0000
240.1000	78.8859	63.1801	0.0000	4.2375	2.0000
240.2000	78.7007	62.9967	0.0000	4.2489	2.0000
240.3000	78.5154	62.8133	0.0000	4.2602	2.0000
240.4000	78.3302	62.6299	0.0000	4.2716	2.0000
240.5000	78.1449	62.4465	0.0000	4.2830	2.0000
240.6000	77.9557	62.2694	0.0000	4.2944	2.0000
240.7000	77.7481	62.1211	0.0000	4.3058	2.0000
240.8000	77.5405	61.9728	0.0000	4.3172	2.0000
240.9000	77.3329	61.8245	0.0000	4.3285	2.0000
241.0000	77.1253	61.6762	0.0000	4.3399	2.0000
241.1000	76.9178	61.5279	0.0000	4.3513	2.0000
241.2000	76.7102	61.3796	0.0000	4.3627	2.0000
241.3000	76.5026	61.2312	0.0000	4.3741	2.0000
241.4000	76.2950	61.0829	0.0000	4.3855	2.0000
241.5000	76.1361	61.0040	0.0000	4.3968	2.0000
241.6000	76.1989	61.2414	0.0000	4.4082	2.0000
241.7000	76.2617	61.4788	0.0000	4.4196	2.0000
241.8000	76.3245	61.7162	0.0000	4.4310	2.0000
241.9000	76.3872	61.9536	0.0000	4.4424	2.0000
242.0000	76.4500	62.1910	0.0000	4.4538	2.0000
242.1000	76.5128	62.4284	0.0000	4.4572	2.0000
242.2000	76.5756	62.6658	0.0000	4.4545	2.0000
242.3000	76.6384	62.9032	0.0000	4.4517	2.0000
242.4000	76.7012	63.1406	0.0000	4.4489	2.0000
242.5000	76.6570	63.2004	0.0000	4.4462	2.0000
242.6000	76.5752	63.1978	0.0000	4.4434	2.0000
242.7000	76.4935	63.1953	0.0000	4.4407	2.0000
242.8000	76.4117	63.1927	0.0000	4.4379	2.0000
242.9000	76.3300	63.1902	0.0000	4.4351	2.0000
243.0000	76.2482	63.1876	0.0000	4.4324	2.0000
243.1000	76.1665	63.1850	0.0000	4.4296	2.0000
243.2000	76.0847	63.1825	0.0000	4.4269	2.0000
243.3000	76.0029	63.1799	0.0000	4.4241	2.0000
243.4000	75.9015	63.1583	0.0000	4.4213	2.0000
243.5000	75.6970	63.0371	0.0000	4.4186	2.0000
243.6000	75.4924	62.9158	0.0000	4.4158	2.0000
243.7000	75.2878	62.7945	0.0000	4.4130	2.0000
243.8000	75.0832	62.6732	0.0000	4.4103	2.0000
243.9000	74.8787	62.5520	0.0000	4.4075	2.0000
244.0000	74.6741	62.4307	0.0000	4.4048	2.0000
244.1000	74.4695	62.3094	0.0000	4.4020	2.0000
244.2000	74.2649	62.1881	0.0000	4.3992	2.0000
244.3000	74.0796	62.0857	0.0000	4.3965	2.0000
244.4000	74.1152	62.1995	0.0000	4.3937	2.0000
244.5000	74.1509	62.3134	0.0000	4.3910	2.0000
244.6000	74.1866	62.4272	0.0000	4.3882	2.0000
244.7000	74.2222	62.5411	0.0000	4.3854	2.0000
244.8000	74.2579	62.6550	0.0000	4.3827	2.0000
244.9000	74.2936	62.7688	0.0000	4.3799	2.0000
245.0000	74.3292	62.8827	0.0000	4.3772	2.0000
245.1000	74.3649	62.9966	0.0000	4.3744	2.0000
245.2000	74.4639	63.2363	0.0000	4.3716	2.0000
245.3000	74.6314	63.6123	0.0000	4.3689	2.0000
245.4000	74.7990	63.9884	0.0000	4.3661	2.0000
245.5000	74.9666	64.3645	0.0000	4.3633	2.0000
245.6000	75.1342	64.7406	0.0000	4.3606	2.0000
245.7000	75.3018	65.1166	0.0000	4.3578	2.0000
245.8000	75.4694	65.4927	0.0000	4.3551	2.0000
245.9000	75.6370	65.8688	0.0000	4.3523	2.0000
246.0000	75.8045	66.2448	0.0000	4.3495	2.0000
246.1000	75.9226	66.4472	0.0000	4.3468	2.0000
246.2000	75.9870	66.4614	0.0000	4.3440	2.0000
246.3000	76.0515	66.4756	0.0000	4.3413	2.0000
246.4000	76.1159	66.4898	0.0000	4.3385	2.0000
246.5000	76.1803	66.5041	0.0000	4.3357	2.0000
246.6000	76.2447	66.5183	0.0000	4.3330	2.0000
246.7000	76.3092	66.5325	0.0000	4.3302	2.0000
246.8000	76.3736	66.5467	0.0000	4.3275	2.0000
246.9000	76.4380	66.5609	0.0000	4.3247	2.0000
247.0000	76.5147	66.5785	0.0000	4.3219	2.0000
247.1000	76.6261	66.6059	0.0000	4.3192	2.0000
247.2000	76.7376	66.6332	0.0000	4.3164	2.0000
247.3000	76.8491	66.6605	0.0000	4.3137	2.0000
247.4000	76.9605	66.6879	0.0000	4.3109	2.0000
247.5000	77.0720	66.7152	0.0000	4.3081	2.0000
247.6000	77.1835	66.7426	0.0000	4.3054	2.0000
247.7000	77.2949	66.7699	0.0000	4.3026	2.0000
247.8000	77.4064	66.7972	0.0000	4.2998	2.0000
247.9000	77.4928	66.7926	0.0000	4.2971	2.0000
248.0000	77.4788	66.6601	0.0000	4.2943	2.0000
248.1000	77.4649	66.5276	0.0000	4.2916	2.0000
248.2000	77.4509	66.3950	0.0000	4.2888	2.0000
248.3000	77.4370	66.2625	0.0000	4.2860	2.0000
248.4000	77.4230	66.1300	0.0000	4.2833	2.0000
248.5000	77.4091	65.9974	0.0000	4.2805	2.0000
248.6000	77.3951	65.8649	0.0000	4.2778	2.0000
248.7000	77.3812	65.7324	0.0000	4.2750	2.0000
248.8000	77.3827	65.6261	0.0000	4.2722	2.0000
248.9000	77.4144	65.5706	0.0000	4.2695	2.0000
249.0000	77.4460	65.5151	0.0000	4.2667	2.0000
249.1000	77.4777	65.4596	0.0000	4.2640	2.0000
249.2000	77.5093	65.4041	0.0000	4.2612	2.0000
249.3000	77.5410	65.3486	0.0000	4.2584	2.0000
249.4000	77.5726	65.2931	0.0000	4.2508	2.0000
249.5000	77.6042	65.2376	0.0000	4.2400	2.0000
249.6000	77.6359	65.1821	0.0000	4.2292	2.0000
249.7000	77.7434	65.2488	0.0000	4.2184	2.0000
249.8000	77.8834	65.3678	0.0000	4.2076	2.0000
249.9000	78.0234	65.4868	0.0000	4.1968	2.0000
250.0000	78.1634	65.6059	0.0000	4.1860	2.0000
250.1000	78.3034	65.7249	0.0000	4.1752	2.0000
250.2000	78.4434	65.8439	0.0000	4.1644	2.0000
250.3000	78.5834	65.9629	0.0000	4.1536	2.0000
250.4000	78.7234	66.0819	0.0000	4.1428	2.0000
250.5000	78.8633	66.2010	0.0000	4.1320	2.0000
250.6000	78.8729	66.1469	0.0000	4.1212	2.0000
250.7000	78.7023	65.8537	0.0000	4.1104	2.0000
250.8000	78.5316	65.5605	0.0000	4.0996	2.0000
250.9000	78.3610	65.2673	0.0000	4.0888	2.0000
251.0000	78.1904	64.9741	0.0000	4.0780	2.0000
251.1000	78.0198	64.6810	0.0000	4.0672	2.0000
251.2000	77.8491	64.3878	0.0000	4.0564	2.0000
251.3000	77.6785	64.0946	0.0000	4.0456	2.0000
251.4000	77.5079	63.8014	0.0000	4.0348	2.0000
251.5000	77.3373	63.5082	0.0000	4.0240	2.0000
251.6000	77.1106	63.2238	0.0000	4.0132	2.0000
251.7000	76.8322	62.9474	0.0000	4.0024	2.0000
251.8000	76.5537	62.6710	0.0000	3.9916	2.0000
251.9000	76.2753	62.3947	0.0000	3.9808	2.0000
252.0000	75.9969	62.1183	0.0000	3.9699	2.0000
252.1000	75.7185	61.8420	0.0000	3.9591	2.0000
252.2000	75.4400	61.5656	0.0000	3.9483	2.0000
252.3000	75.1616	61.2892	0.0000	3.9375	2.0000
252.4000	74.8832	61.0129	0.0000	3.9267	2.0000
252.5000	74.7304	60.8582	0.0000	3.9159	2.0000
252.6000	74.7662	60.8862	0.0000	3.9051	2.0000
252.7000	74.8019	60.9141	0.0000	3.8943	2.0000
252.8000	74.8377	60.9420	0.0000	3.8835	2.0000
252.9000	74.8734	60.9700	0.0000	3.8727	2.0000
253.0000	74.9092	60.9979	0.0000	3.8619	2.0000
253.1000	74.9449	61.0259	0.0000	3.8511	2.0000
253.2000	74.9807	61.0538	0.0000	3.8403	2.0000
253.3000	75.0164	61.0818	0.0000	3.8295	2.0000
253.4000	75.0850	61.1907	0.0000	3.8187	2.0000
253.5000	75.2236	61.4718	0.0000	3.8079	2.0000
253.6000	75.3622	61.7528	0.0000	3.7986	2.0000
253.7000	75.5007	62.0339	0.0000	3.7895	2.0000
253.8000	75.6393	62.3150	0.0000	3.7804	2.0000
253.9000	75.7778	62.5960	0.0000	3.7713	2.0000
254.0000	75.9164	62.8771	0.0000	3.7622	2.0000
254.1000	76.0549	63.1581	0.0000	3.7530	2.0000
254.2000	76.1935	63.4392	0.0000	3.7439	2.0000
254.3000	76.3321	63.7203	0.0000	3.7348	2.0000
254.4000	76.4910	63.8049	0.0000	3.7257	2.0000
254.5000	76.6523	63.8677	0.0000	3.7166	2.0000
254.6000	76.8135	63.9305	0.0000	3.7074	2.0000
254.7000	76.9748	63.9933	0.0000	3.6983	2.0000
254.8000	77.1360	64.0561	0.0000	3.6892	2.0000
254.9000	77.2973	64.1189	0.0000	3.6801	2.0000
255.0000	77.4585	64.1818	0.0000	3.6709	2.0000
255.1000	77.6198	64.2446	0.0000	3.6618	2.0000
255.2000	77.7810	64.3074	0.0000	3.6527	2.0000
255.3000	77.8982	64.3129	0.0000	3.6436	2.0000
255.4000	77.9883	64.2833	0.0000	3.6345	2.0000
255.5000	78.0784	64.2538	0.0000	3.6253	2.0000
255.6000	78.1685	64.2242	0.0000	3.6162	2.0000
255.7000	78.2586	64.1947	0.0000	3.6071	2.0000
255.8000	78.3487	64.1651	0.0000	3.5980	2.0000
255.9000	78.4389	64.1355	0.0000	3.5889	2.0000
256.0000	78.5290	64.1060	0.0000	3.5797	2.0000
256.1000	78.6191	64.0764	0.0000	3.5706	2.0000
256.2000	78.7506	64.2159	0.0000	3.5615	2.0000
256.3000	78.8999	64.4278	0.0000	3.5524	2.0000
256.4000	79.0492	64.6397	0.0000	3.5433	2.0000
256.5000	79.1985	64.8516	0.0000	3.5341	2.0000
256.6000	79.3478	65.0634	0.0000	3.5409	2.0000
256.7000	79.4971	65.2753	0.0000	3.5551	2.0000
256.8000	79.6463	65.4872	0.0000	3.5694	2.0000
256.9000	79.7956	65.6991	0.0000	3.5836	2.0000
257.0000	79.9449	65.9110	0.0000	3.5978	2.0000
257.1000	80.0776	66.0956	0.0000	3.6120	2.0000
257.2000	80.0187	65.9667	0.0000	3.6263	2.0000
257.3000	79.9599	65.8378	0.0000	3.6405	2.0000
257.4000	79.9011	65.7089	0.0000	3.6547	2.0000
257.5000	79.8423	65.5799	0.0000	3.6690	2.0000
257.6000	79.7835	65.4510	0.0000	3.6832	2.0000
257.7000	79.7246	65.3221	0.0000	3.6974	2.0000
257.8000	79.6658	65.1932	0.0000	3.7116	2.0000
257.9000	79.6070	65.0642	0.0000	3.7259	2.0000
258.0000	79.5482	64.9353	0.0000	3.7401	2.0000
258.1000	79.4894	64.8064	0.0000	3.7543	2.0000
258.2000	79.2908	64.6130	0.0000	3.7686	2.0000
258.3000	79.0834	64.4156	0.0000	3.7828	2.0000
258.4000	78.8759	64.2181	0.0000	3.7970	2.0000
258.5000	78.6685	64.0206	0.0000	3.8113	2.0000
258.6000	78.4610	63.8232	0.0000	3.8255	2.0000
258.7000	78.2535	63.6257	0.0000	3.8397	2.0000
258.8000	78.0461	63.4282	0.0000	3.8539	2.0000
258.9000	77.8386	63.2308	0.0000	3.8682	2.0000
259.0000	77.6312	63.0333	0.0000	3.8824	2.0000
259.1000	77.4223	62.8375	0.0000	3.8966	2.0000
259.2000	77.1434	62.7226	0.0000	3.9109	2.0000
259.3000	76.8645	62.6078	0.0000	3.9251	2.0000
259.4000	76.5856	62.4930	0.0000	3.9393	2.0000
259.5000	76.3067	62.3781	0.0000	3.9536	2.0000
259.6000	76.0279	62.2633	0.0000	3.9678	2.0000
259.7000	75.7490	62.1485	0.0000	3.9820	2.0000
259.8000	75.4701	62.0336	0.0000	3.9962	2.0000
259.9000	75.1912	61.9188	0.0000	4.0105	2.0000
260.0000	74.9123	61.8039	0.0000	4.0247	2.0000
260.1000	74.6349	61.6331	0.0000	4.0389	2.0000
260.2000	74.3584	61.4249	0.0000	4.0532	2.0000
260.3000	74.0819	61.2167	0.0000	4.0674	2.0000
260.4000	73.8055	61.0085	0.0000	4.0816	2.0000
260.5000	73.5290	60.8003	0.0000	4.0958	2.0000
260.6000	73.2525	60.5921	0.0000	4.1101	2.0000
260.7000	72.9760	60.3839	0.0000	4.1243	2.0000
260.8000	72.6996	60.1757	0.0000	4.1385	2.0000
260.9000	72.4231	59.9675	0.0000	4.1528	2.0000
261.0000	72.3301	60.0642	0.0000	4.1670	2.0000
261.1000	72.3812	60.4004	0.0000	4.1812	2.0000
261.2000	72.4323	60.7367	0.0000	4.1955	2.0000
261.3000	72.4834	61.0729	0.0000	4.2006	2.0000
261.4000	72.5345	61.4092	0.0000	4.1973	2.0000
261.5000	72.5856	61.7454	0.0000	4.1941	2.0000
261.6000	72.6367	62.0817	0.0000	4.1908	2.0000
261.7000	72.6879	62.4179	0.0000	4.1876	2.0000
261.8000	72.7390	62.7542	0.0000	4.1843	2.0000
261.9000	72.7729	62.9676	0.0000	4.1811	2.0000
262.0000	72.7702	62.9202	0.0000	4.1778	2.0000
262.1000	72.7675	62.8728	0.0000	4.1746	2.0000
262.2000	72.7649	62.8254	0.0000	4.1713	2.0000
262.3000	72.7622	62.7779	0.0000	4.1681	2.0000
262.4000	72.7596	62.7305	0.0000	4.1648	2.0000
262.5000	72.7569	62.6831	0.0000	4.1615	2.0000
262.6000	72.7542	62.6357	0.0000	4.1583	2.0000
262.7000	72.7516	62.5882	0.0000	4.1550	2.0000
262.8000	72.7465	62.5393	0.0000	4.1518	2.0000
262.9000	72.6845	62.4531	0.0000	4.1485	2.0000
263.0000	72.6225	62.3669	0.0000	4.1453	2.0000
263.1000	72.5605	62.2807	0.0000	4.1420	2.0000
263.2000	72.4985	62.1946	0.0000	4.1388	2.0000
263.3000	72.4365	62.1084	0.0000	4.1355	2.0000
263.4000	72.3745	62.0222	0.0000	4.1323	2.0000
263.5000	72.3125	61.9361	0.0000	4.1290	2.0000
263.6000	72.2505	61.8499	0.0000	4.1258	2.0000
263.7000	72.2049	61.7973	0.0000	4.1225	2.0000
263.8000	72.3066	62.0467	0.0000	4.1192	2.0000
263.9000	72.4084	62.2962	0.0000	4.1160	2.0000
264.0000	72.5101	62.5456	0.0000	4.1127	2.0000
264.1000	72.6119	62.7950	0.0000	4.1095	2.0000
264.2000	72.7136	63.0445	0.0000	4.1062	2.0000
264.3000	72.8154	63.2939	0.0000	4.1030	2.0000
264.4000	72.9172	63.5434	0.0000	4.0997	2.0000
264.5000	73.0189	63.7928	0.0000	4.0965	2.0000
264.6000	73.2583	64.0554	0.0000	4.0932	2.0000
264.7000	73.6248	64.3301	0.0000	4.0900	2.0000
264.8000	73.9912	64.6048	0.0000	4.0867	2.0000
264.9000	74.3577	64.8795	0.0000	4.0835	2.0000
265.0000	74.7241	65.1543	0.0000	4.0795	2.0000
265.1000	75.0906	65.4290	0.0000	4.0754	2.0000
265.2000	75.4570	65.7037	0.0000	4.0713	2.0000
265.3000	75.8235	65.9784	0.0000	4.0672	2.0000
265.4000	76.1900	66.2531	0.0000	4.0631	2.0000
265.5000	76.4545	66.3830	0.0000	4.0590	2.0000
265.6000	76.6711	66.4446	0.0000	4.0550	2.0000
265.7000	76.8878	66.5062	0.0000	4.0509	2.0000
265.8000	77.1044	66.5679	0.0000	4.0468	2.0000
265.9000	77.3210	66.6295	0.0000	4.0427	2.0000
266.0000	77.5376	66.6912	0.0000	4.0386	2.0000
266.1000	77.7543	66.7528	0.0000	4.0345	2.0000
266.2000	77.9709	66.8145	0.0000	4.0304	2.0000
266.3000	78.1875	66.8761	0.0000	4.0263	2.0000
266.4000	78.3999	66.9320	0.0000	4.0222	2.0000
266.5000	78.4062	66.7049	0.0000	4.0182	2.0000
266.6000	78.4124	66.4778	0.0000	4.0141	2.0000
266.7000	78.4187	66.2508	0.0000	4.0100	2.0000
266.8000	78.4249	66.0237	0.0000	4.0059	2.0000
266.9000	78.4312	65.7966	0.0000	4.0018	2.0000
267.0000	78.4374	65.5695	0.0000	3.9977	2.0000
267.1000	78.4437	65.3424	0.0000	3.9936	2.0000
267.2000	78.4499	65.1154	0.0000	3.9895	2.0000
267.3000	78.4562	64.8883	0.0000	3.9854	2.0000
267.4000	78.4306	64.7414	0.0000	3.9814	2.0000
267.5000	78.3645	64.6965	0.0000	3.9773	2.0000
267.6000	78.2984	64.6516	0.0000	3.9732	2.0000
267.7000	78.2324	64.6066	0.0000	3.9691	2.0000
267.8000	78.1663	64.5617	0.0000	3.9650	2.0000
267.9000	78.1002	64.5168	0.0000	3.9609	2.0000
268.0000	78.0341	64.4719	0.0000	3.9568	2.0000
268.1000	77.9680	64.4270	0.0000	3.9527	2.0000
268.2000	77.9019	64.3821	0.0000	3.9486	2.0000
268.3000	77.9211	64.3967	0.0000	3.9445	2.0000
268.4000	78.0254	64.4708	0.0000	3.9405	2.0000
268.5000	78.1297	64.5450	0.0000	3.9364	2.0000
268.6000	78.2340	64.6191	0.0000	3.9323	2.0000
268.7000	78.3383	64.6932	0.0000	3.9282	2.0000
268.8000	78.4426	64.7674	0.0000	3.9220	2.0000
268.9000	78.5469	64.8415	0.0000	3.9136	2.0000
269.0000	78.6512	64.9157	0.0000	3.9051	2.0000
269.1000	78.7555	64.9898	0.0000	3.8967	2.0000
269.2000	78.8394	65.0605	0.0000	3.8882	2.0000
269.3000	78.6882	65.0923	0.0000	3.8798	2.0000
269.4000	78.5371	65.1240	0.0000	3.8714	2.0000
269.5000	78.3860	65.1557	0.0000	3.8629	2.0000
269.6000	78.2349	65.1874	0.0000	3.8545	2.0000
269.7000	78.0838	65.2191	0.0000	3.8460	2.0000
269.8000	77.9326	65.2509	0.0000	3.8376	2.0000
269.9000	77.7815	65.2826	0.0000	3.8291	2.0000
270.0000	77.6304	65.3143	0.0000	3.8207	2.0000
270.1000	77.4793	65.3460	0.0000	3.8123	2.0000
270.2000	77.3183	65.3484	0.0000	3.8038	2.0000
270.3000	77.1365	65.2886	0.0000	3.7954	2.0000
270.4000	76.9548	65.2288	0.0000	3.7869	2.0000
270.5000	76.7730	65.1690	0.0000	3.7785	2.0000
270.6000	76.5912	65.1091	0.0000	3.7700	2.0000
270.7000	76.4094	65.0493	0.0000	3.7616	2.0000
270.8000	76.2276	64.9895	0.0000	3.7532	2.0000
270.9000	76.0458	64.9296	0.0000	3.7447	2.0000
271.0000	75.8640	64.8698	0.0000	3.7363	2.0000
271.1000	75.7872	64.8454	0.0000	3.7278	2.0000
271.2000	75.8970	64.8839	0.0000	3.7194	2.0000
271.3000	76.0069	64.9224	0.0000	3.7109	2.0000
271.4000	76.1167	64.9610	0.0000	3.7025	2.0000
271.5000	76.2266	64.9995	0.0000	3.6941	2.0000
271.6000	76.3364	65.0380	0.0000	3.6856	2.0000
271.7000	76.4462	65.0765	0.0000	3.6772	2.0000
271.8000	76.5561	65.1151	0.0000	3.6687	2.0000
271.9000	76.6659	65.1536	0.0000	3.6603	2.0000
272.0000	76.8663	65.4298	0.0000	3.6518	2.0000
272.1000	77.1503	65.9253	0.0000	3.6434	2.0000
272.2000	77.4344	66.4209	0.0000	3.6446	2.0000
272.3000	77.7184	66.9165	0.0000	3.6533	2.0000
272.4000	78.0024	67.4120	0.0000	3.6620	2.0000
272.5000	78.2864	67.9076	0.0000	3.6707	2.0000
272.6000	78.5705	68.4031	0.0000	3.6795	2.0000
272.7000	78.8545	68.8987	0.0000	3.6882	2.0000
272.8000	79.1385	69.3943	0.0000	3.6969	2.0000
272.9000	79.4058	69.6730	0.0000	3.7057	2.0000
273.0000	79.6535	69.6972	0.0000	3.7144	2.0000
273.1000	79.9012	69.7214	0.0000	3.7231	2.0000
273.2000	80.1489	69.7456	0.0000	3.7318	2.0000
273.3000	80.3966	69.7698	0.0000	3.7406	2.0000
273.4000	80.6443	69.7941	0.0000	3.7493	2.0000
273.5000	80.8920	69.8183	0.0000	3.7580	2.0000
273.6000	81.1397	69.8425	0.0000	3.7667	2.0000
273.7000	81.3874	69.8667	0.0000	3.7755	2.0000
273.8000	81.5770	69.8836	0.0000	3.7842	2.0000
273.9000	81.7086	69.8932	0.0000	3.7929	2.0000
274.0000	81.8401	69.9029	0.0000	3.8017	2.0000
274.1000	81.9717	69.9125	0.0000	3.8104	2.0000
274.2000	82.1033	69.9221	0.0000	3.8191	2.0000
274.3000	82.2348	69.9317	0.0000	3.8278	2.0000
274.4000	82.3664	69.9413	0.0000	3.8366	2.0000
274.5000	82.4979	69.9509	0.0000	3.8453	2.0000
274.6000	82.6295	69.9605	0.0000	3.8540	2.0000
274.7000	82.8011	70.0190	0.0000	3.8627	2.0000
274.8000	82.9792	70.0854	0.0000	3.8715	2.0000
274.9000	83.1573	70.1518	0.0000	3.8802	2.0000
275.0000	83.3355	70.2182	0.0000	3.8889	2.0000
275.1000	83.5136	70.2847	0.0000	3.8976	2.0000
275.2000	83.6917	70.3511	0.0000	3.9064	2.0000
275.3000	83.8699	70.4175	0.0000	3.9151	2.0000
275.4000	84.0480	70.4839	0.0000	3.9238	2.0000
275.5000	84.2261	70.5503	0.0000	3.9326	2.0000
275.6000	84.2076	70.4332	0.0000	3.9413	2.0000
275.7000	84.1199	70.2516	0.0000	3.9500	2.0000
275.8000	84.0323	70.0700	0.0000	3.9587	2.0000
275.9000	83.9446	69.8884	0.0000	3.9675	2.0000
276.0000	83.8570	69.7067	0.0000	3.9762	2.0000
276.1000	83.7693	69.5251	0.0000	3.9849	2.0000
276.2000	83.6816	69.3435	0.0000	3.9936	2.0000
276.3000	83.5940	69.1619	0.0000	4.0024	2.0000
276.4000	83.5063	68.9803	0.0000	4.0111	2.0000
276.5000	83.3778	68.7800	0.0000	4.0198	2.0000
276.6000	83.1200	68.5208	0.0000	4.0286	2.0000
276.7000	82.8621	68.2615	0.0000	4.0373	2.0000
276.8000	82.6042	68.0023	0.0000	4.0460	2.0000
276.9000	82.3464	67.7430	0.0000	4.0547	2.0000
277.0000	82.0885	67.4837	0.0000	4.0635	2.0000
277.1000	81.8307	67.2245	0.0000	4.0722	2.0000
277.2000	81.5728	66.9652	0.0000	4.0809	2.0000
277.3000	81.3149	66.7060	0.0000	4.0896	2.0000
277.4000	81.0571	66.4467	0.0000	4.0984	2.0000
277.5000	80.7459	66.1283	0.0000	4.1071	2.0000
277.6000	80.4301	65.8046	0.0000	4.1158	2.0000
277.7000	80.1143	65.4810	0.0000	4.1246	2.0000
277.8000	79.7985	65.1574	0.0000	4.1333	2.0000
277.9000	79.4827	64.8338	0.0000	4.1420	2.0000
278.0000	79.1668	64.5102	0.0000	4.1507	2.0000
278.1000	78.8510	64.1866	0.0000	4.1595	2.0000
278.2000	78.5352	63.8630	0.0000	4.1682	2.0000
278.3000	78.2985	63.6642	0.0000	4.1769	2.0000
278.4000	78.2870	63.8206	0.0000	4.1856	2.0000
278.5000	78.2756	63.9771	0.0000	4.1944	2.0000
278.6000	78.2641	64.1335	0.0000	4.2011	2.0000
278.7000	78.2526	64.2899	0.0000	4.1928	2.0000
278.8000	78.2411	64.4463	0.0000	4.1846	2.0000
278.9000	78.2296	64.6028	0.0000	4.1763	2.0000
279.0000	78.2181	64.7592	0.0000	4.1681	2.0000
279.1000	78.2067	64.9156	0.0000	4.1599	2.0000
279.2000	78.0977	65.0354	0.0000	4.1516	2.0000
279.3000	77.9384	65.1364	0.0000	4.1434	2.0000
279.4000	77.7792	65.2373	0.0000	4.1351	2.0000
279.5000	77.6200	65.3382	0.0000	4.1269	2.0000
279.6000	77.4607	65.4392	0.0000	4.1187	2.0000
279.7000	77.3015	65.5401	0.0000	4.1104	2.0000
279.8000	77.1423	65.6410	0.0000	4.1022	2.0000
279.9000	76.9830	65.7420	0.0000	4.0939	2.0000
280.0000	76.8238	65.8429	0.0000	4.0857	2.0000
280.1000	76.5957	65.7469	0.0000	4.0775	2.0000
280.2000	76.2798	65.4004	0.0000	4.0692	2.0000
280.3000	75.9639	65.0538	0.0000	4.0610	2.0000
280.4000	75.6480	64.7072	0.0000	4.0527	2.0000
280.5000	75.3321	64.3606	0.0000	4.0445	2.0000
280.6000	75.0163	64.0141	0.0000	4.0363	2.0000
280.7000	74.7004	63.6675	0.0000	4.0280	2.0000
280.8000	74.3845	63.3209	0.0000	4.0198	2.0000
280.9000	74.0686	62.9743	0.0000	4.0115	2.0000
281.0000	73.7528	62.6277	0.0000	4.0033	2.0000
281.1000	73.3908	62.3989	0.0000	3.9950	2.0000
281.2000	73.0260	62.1776	0.0000	3.9868	2.0000
281.3000	72.6612	61.9562	0.0000	3.9786	2.0000
281.4000	72.2963	61.7349	0.0000	3.9703	2.0000
281.5000	71.9315	61.5135	0.0000	3.9621	2.0000
281.6000	71.5666	61.2922	0.0000	3.9538	2.0000
281.7000	71.2018	61.0708	0.0000	3.9456	2.0000
281.8000	70.8369	60.8495	0.0000	3.9374	2.0000
281.9000	70.4721	60.6282	0.0000	3.9291	2.0000
282.0000	70.3115	60.6992	0.0000	3.9209	2.0000
282.1000	70.1686	60.7957	0.0000	3.9126	2.0000
282.2000	70.0258	60.8921	0.0000	3.9044	2.0000
282.3000	69.8829	60.9886	0.0000	3.8962	2.0000
282.4000	69.7401	61.0851	0.0000	3.8879	2.0000
282.5000	69.5972	61.1815	0.0000	3.8797	2.0000
282.6000	69.4544	61.2780	0.0000	3.8714	2.0000
282.7000	69.3116	61.3745	0.0000	3.8632	2.0000
282.8000	69.2366	61.5656	0.0000	3.8550	2.0000
282.9000	69.3202	61.9776	0.0000	3.8467	2.0000
283.0000	69.4038	62.3897	0.0000	3.8385	2.0000
283.1000	69.4874	62.8017	0.0000	3.8302	2.0000
283.2000	69.5709	63.2137	0.0000	3.8220	2.0000
283.3000	69.6545	63.6257	0.0000	3.8190	2.0000
283.4000	69.7381	64.0378	0.0000	3.8168	2.0000
283.5000	69.8216	64.4498	0.0000	3.8146	2.0000
283.6000	69.9052	64.8618	0.0000	3.8123	2.0000
283.7000	69.9629	65.1659	0.0000	3.8101	2.0000
283.8000	69.9387	65.1281	0.0000	3.8079	2.0000
283.9000	69.9144	65.0902	0.0000	3.8056	2.0000
284.0000	69.8902	65.0524	0.0000	3.8034	2.0000
284.1000	69.8659	65.0146	0.0000	3.8012	2.0000
284.2000	69.8417	64.9768	0.0000	3.7989	2.0000
284.3000	69.8174	64.9389	0.0000	3.7967	2.0000
284.4000	69.7932	64.9011	0.0000	3.7945	2.0000
284.5000	69.7690	64.8633	0.0000	3.7922	2.0000
284.6000	69.7447	64.8255	0.0000	3.7900	2.0000
284.7000	69.6694	64.7519	0.0000	3.7878	2.0000
284.8000	69.5843	64.6715	0.0000	3.7855	2.0000
284.9000	69.4993	64.5912	0.0000	3.7833	2.0000
285.0000	69.4142	64.5108	0.0000	3.7811	2.0000
285.1000	69.3292	64.4304	0.0000	3.7788	2.0000
285.2000	69.2441	64.3501	0.0000	3.7766	2.0000
285.3000	69.1591	64.2697	0.0000	3.7744	2.0000
285.4000	69.0740	64.1893	0.0000	3.7721	2.0000
285.5000	68.9890	64.1090	0.0000	3.7699	2.0000
285.6000	69.1734	64.3841	0.0000	3.7677	2.0000
285.7000	69.3812	64.6901	0.0000	3.7654	2.0000
285.8000	69.5890	64.9961	0.0000	3.7632	2.0000
285.9000	69.7969	65.3022	0.0000	3.7610	2.0000
286.0000	70.0047	65.6082	0.0000	3.7587	2.0000
286.1000	70.2125	65.9142	0.0000	3.7565	2.0000
286.2000	70.4204	66.2202	0.0000	3.7543	2.0000
286.3000	70.6282	66.5262	0.0000	3.7520	2.0000
286.4000	70.7643	66.8323	0.0000	3.7453	2.0000
286.5000	70.9004	66.9987	0.0000	3.7379	2.0000
286.6000	71.0365	67.1303	0.0000	3.7304	2.0000
286.7000	71.1726	67.2619	0.0000	3.7230	2.0000
286.8000	71.3087	67.3935	0.0000	3.7156	2.0000
286.9000	71.4448	67.5251	0.0000	3.7082	2.0000
287.0000	71.5809	67.6566	0.0000	3.7008	2.0000
287.1000	71.7170	67.7882	0.0000	3.6934	2.0000
287.2000	71.8531	67.9198	0.0000	3.6860	2.0000
287.3000	71.9892	68.0514	0.0000	3.6786	2.0000
287.4000	72.1253	68.0840	0.0000	3.6712	2.0000
287.5000	72.2614	67.9406	0.0000	3.6638	2.0000
287.6000	72.3975	67.7971	0.0000	3.6564	2.0000
287.7000	72.5336	67.6537	0.0000	3.6490	2.0000
287.8000	72.6697	67.5103	0.0000	3.6416	2.0000
287.9000	72.8058	67.3669	0.0000	3.6342	2.0000
288.0000	72.9419	67.2235	0.0000	3.6267	2.0000
288.1000	73.0780	67.0801	0.0000	3.6193	2.0000
288.2000	73.2141	66.9366	0.0000	3.6119	2.0000
288.3000	73.3502	66.9210	0.0000	3.6045	2.0000
288.4000	73.4863	67.0553	0.0000	3.5971	2.0000
288.5000	73.6224	67.1896	0.0000	3.5897	2.0000
288.6000	73.7585	67.3239	0.0000	3.5823	2.0000
288.7000	73.8946	67.4581	0.0000	3.5749	2.0000
288.8000	74.0307	67.5924	0.0000	3.5675	2.0000
288.9000	74.1668	67.7267	0.0000	3.5601	2.0000
289.0000	74.1483	67.8610	0.0000	3.5527	2.0000
289.1000	74.1299	67.9953	0.0000	3.5453	2.0000
289.2000	74.7939	68.0096	0.0000	3.5379	2.0000
289.3000	75.5879	68.0010	0.0000	3.5305	2.0000
289.4000	76.3820	67.9923	0.0000	3.5300	2.0000
289.5000	77.1760	67.9837	0.0000	3.5302	2.0000
289.6000	77.9700	67.9751	0.0000	3.5304	2.0000
289.7000	78.7641	67.9665	0.0000	3.5306	2.0000
289.8000	79.5581	67.9579	0.0000	3.5308	2.0000
289.9000	80.3521	67.9492	0.0000	3.5310	2.0000
290.0000	81.1462	67.9406	0.0000	3.5312	2.0000
290.1000	81.1734	67.8870	0.0000	3.5314	2.0000
290.2000	80.9843	67.8207	0.0000	3.5316	2.0000
290.3000	80.7953	67.7545	0.0000	3.5318	2.0000
290.4000	80.6063	67.6882	0.0000	3.5320	2.0000
290.5000	80.4172	67.6219	0.0000	3.5322	2.0000
290.6000	80.2282	67.5556	0.0000	3.5324	2.0000
290.7000	80.0391	67.4893	0.0000	3.5326	2.0000
290.8000	79.8501	67.4231	0.0000	3.5328	2.0000
290.9000	79.6611	67.3568	0.0000	3.5330	2.0000
291.0000	79.5349	67.1849	0.0000	3.5332	2.0000
291.1000	79.4128	67.0063	0.0000	3.5334	2.0000
291.2000	79.2907	66.8277	0.0000	3.5336	2.0000
291.3000	79.1686	66.6491	0.0000	3.5338	2.0000
291.4000	79.0465	66.4704	0.0000	3.5340	2.0000
291.5000	78.9243	66.2918	0.0000	3.5342	2.0000
291.6000	78.8022	66.1132	0.0000	3.5344	2.0000
291.7000	78.6801	65.9346	0.0000	3.5346	2.0000
291.8000	78.6909	66.0174	0.0000	3.5348	2.0000
291.9000	78.7701	66.2348	0.0000	3.5350	2.0000
292.0000	78.8493	66.4523	0.0000	3.5352	2.0000
292.1000	78.9285	66.6697	0.0000	3.5354	2.0000
292.2000	79.0078	66.8872	0.0000	3.5356	2.0000
292.3000	79.0870	67.1046	0.0000	3.5370	2.0000
292.4000	79.1662	67.3221	0.0000	3.5466	2.0000
292.5000	79.2454	67.5395	0.0000	3.5561	2.0000
292.6000	79.2639	67.6879	0.0000	3.5657	2.0000
292.7000	79.0396	67.5602	0.0000	3.5753	2.0000
292.8000	78.8153	67.4324	0.0000	3.5849	2.0000
292.9000	78.5910	67.3046	0.0000	3.5944	2.0000
293.0000	78.3667	67.1768	0.0000	3.6040	2.0000
293.1000	78.1423	67.0491	0.0000	3.6136	2.0000
293.2000	77.9180	66.9213	0.0000	3.6232	2.0000
293.3000	77.6937	66.7935	0.0000	3.6327	2.0000
293.4000	77.4694	66.6657	0.0000	3.6423	2.0000
293.5000	77.1880	66.4113	0.0000	3.6519	2.0000
293.6000	76.8277	65.9820	0.0000	3.6615	2.0000
293.7000	76.4675	65.5527	0.0000	3.6710	2.0000
293.8000	76.1073	65.1235	0.0000	3.6806	2.0000
293.9000	75.7470	64.6942	0.0000	3.6902	2.0000
294.0000	75.3868	64.2649	0.0000	3.6998	2.0000
294.1000	75.0265	63.8356	0.0000	3.7093	2.0000
294.2000	74.6663	63.4063	0.0000	3.7189	2.0000
294.3000	74.3577	63.0519	0.0000	3.7285	2.0000
294.4000	74.3670	63.1578	0.0000	3.7381	2.0000
294.5000	74.3763	63.2636	0.0000	3.7476	2.0000
294.6000	74.3855	63.3694	0.0000	3.7572	2.0000
294.7000	74.3948	63.4752	0.0000	3.7668	2.0000
294.8000	74.4040	63.5810	0.0000	3.7764	2.0000
294.9000	74.4133	63.6869	0.0000	3.7859	2.0000
295.0000	74.4225	63.7927	0.0000	3.7955	2.0000
295.1000	74.4318	63.8985	0.0000	3.8030	2.0000
295.2000	74.3362	63.8252	0.0000	3.7956	2.0000
295.3000	74.1997	63.6822	0.0000	3.7881	2.0000
295.4000	74.0632	63.5392	0.0000	3.7806	2.0000
295.5000	73.9268	63.3962	0.0000	3.7731	2.0000
295.6000	73.7903	63.2532	0.0000	3.7656	2.0000
295.7000	73.6539	63.1102	0.0000	3.7581	2.0000
295.8000	73.5174	62.9672	0.0000	3.7506	2.0000
295.9000	73.3810	62.8242	0.0000	3.7431	2.0000
296.0000	73.2287	62.6734	0.0000	3.7356	2.0000
296.1000	72.9791	62.4747	0.0000	3.7281	2.0000
296.2000	72.7296	62.2760	0.0000	3.7206	2.0000
296.3000	72.4800	62.0773	0.0000	3.7131	2.0000
296.4000	72.2304	61.8786	0.0000	3.7056	2.0000
296.5000	71.9809	61.6799	0.0000	3.6981	2.0000
296.6000	71.7313	61.4812	0.0000	3.6907	2.0000
296.7000	71.4817	61.2825	0.0000	3.6832	2.0000
296.8000	71.2322	61.0838	0.0000	3.6757	2.0000
296.9000	71.2441	61.3478	0.0000	3.6682	2.0000
297.0000	71.2850	61.6632	0.0000	3.6607	2.0000
297.1000	71.3260	61.9785	0.0000	3.6532	2.0000
297.2000	71.3670	62.2939	0.0000	3.6457	2.0000
297.3000	71.4079	62.6093	0.0000	3.6382	2.0000
297.4000	71.4489	62.9247	0.0000	3.6307	2.0000
297.5000	71.4899	63.2401	0.0000	3.6232	2.0000
297.6000	71.5309	63.5554	0.0000	3.6157	2.0000
297.7000	71.6696	63.5593	0.0000	3.6082	2.0000
297.8000	71.8269	63.5039	0.0000	3.6007	2.0000
297.9000	71.9842	63.4485	0.0000	3.6062	2.0000
298.0000	72.1415	63.3931	0.0000	3.6282	2.0000
298.1000	72.2989	63.3376	0.0000	3.6503	2.0000
298.2000	72.4562	63.2822	0.0000	3.6723	2.0000
298.3000	72.6135	63.2268	0.0000	3.6943	2.0000
298.4000	72.7708	63.1713	0.0000	3.7163	2.0000
298.5000	72.8688	63.2080	0.0000	3.7383	2.0000
298.6000	72.9120	63.3297	0.0000	3.7603	2.0000
298.7000	72.9551	63.4514	0.0000	3.7824	2.0000
298.8000	72.9983	63.5731	0.0000	3.8044	2.0000
298.9000	73.0414	63.6948	0.0000	3.8264	2.0000
299.0000	73.0846	63.8164	0.0000	3.8484	2.0000
299.1000	73.1278	63.9381	0.0000	3.8704	2.0000
299.2000	73.1709	64.0598	0.0000	3.8924	2.0000
299.3000	73.1657	64.1059	0.0000	3.9145	2.0000
299.4000	73.0474	63.9758	0.0000	3.9365	2.0000
299.5000	72.9292	63.8456	0.0000	3.9585	2.0000
299.6000	72.8110	63.7155	0.0000	3.9805	2.0000
299.7000	72.6928	63.5853	0.0000	4.0025	2.0000
299.8000	72.5746	63.4552	0.0000	4.0245	2.0000
299.9000	72.4563	63.3250	0.0000	4.0465	2.0000
300.0000	72.3381	63.1948	0.0000	4.0686	2.0000
300.1000	72.2199	63.0647	0.0000	4.0906	2.0000
300.2000	72.1342	62.8833	0.0000	4.1126	2.0000
300.3000	72.0637	62.6778	0.0000	4.1346	2.0000
300.4000	71.9933	62.4723	0.0000	4.1566	2.0000
300.5000	71.9228	62.2669	0.0000	4.1786	2.0000
300.6000	71.8524	62.0614	0.0000	4.2007	2.0000
300.7000	71.7820	61.8559	0.0000	4.2227	2.0000
300.8000	71.7115	61.6504	0.0000	4.2447	2.0000
300.9000	71.6411	61.4449	0.0000	4.2667	2.0000
301.0000	71.6293	61.4498	0.0000	4.2887	2.0000
301.1000	71.7683	61.9957	0.0000	4.3107	2.0000
301.2000	71.9073	62.5415	0.0000	4.3328	2.0000
301.3000	72.0463	63.0874	0.0000	4.3548	2.0000
