Time	MABP [mmHg]	CBFV-L [cm/s]	CBFV-R [cm/s]	etCO2 [kPa]	MN					
0.0000	90.4446	71.4965	76.6075	4.7991	1.0000
0.1000	89.7175	72.1312	77.1718	4.7991	1.0000
0.2000	88.9903	72.7659	77.7360	4.7991	1.0000
0.3000	88.2631	73.4006	78.3003	4.7991	1.0000
0.4000	87.5541	74.0134	78.8392	4.7991	1.0000
0.5000	87.7385	73.5538	78.1401	4.7991	1.0000
0.6000	87.9229	73.0943	77.4410	4.7991	1.0000
0.7000	88.1073	72.6347	76.7418	4.7991	1.0000
0.8000	88.2917	72.1751	76.0427	4.7991	1.0000
0.9000	88.4761	71.7156	75.3435	4.7991	1.0000
1.0000	88.6605	71.2560	74.6444	4.7991	1.0000
1.1000	88.8448	70.7965	73.9453	4.7991	1.0000
1.2000	89.0292	70.3369	73.2461	4.7991	1.0000
1.3000	89.2136	69.8773	72.5470	4.7991	1.0000
1.4000	89.3980	69.4178	71.8478	4.7991	1.0000
1.5000	89.2661	69.1751	71.5957	4.7991	1.0000
1.6000	89.1066	68.9512	71.3825	4.7991	1.0000
1.7000	88.9472	68.7274	71.1692	4.7991	1.0000
1.8000	88.7877	68.5036	70.9560	4.7991	1.0000
1.9000	88.6283	68.2797	70.7427	4.7991	1.0000
2.0000	88.4688	68.0559	70.5295	4.7991	1.0000
2.1000	88.3094	67.8320	70.3162	4.7991	1.0000
2.2000	88.1499	67.6082	70.1030	4.7991	1.0000
2.3000	87.9110	67.4672	69.9957	4.7991	1.0000
2.4000	87.5710	67.4315	70.0233	4.7991	1.0000
2.5000	87.2310	67.3959	70.0509	4.7991	1.0000
2.6000	86.8910	67.3602	70.0786	4.7991	1.0000
2.7000	86.5509	67.3246	70.1062	4.7991	1.0000
2.8000	86.2109	67.2890	70.1338	4.7991	1.0000
2.9000	85.8709	67.2533	70.1614	4.7991	1.0000
3.0000	85.5309	67.2177	70.1890	4.7991	1.0000
3.1000	85.8933	67.7051	70.7974	4.7991	1.0000
3.2000	86.5025	68.3763	71.6097	4.7991	1.0000
3.3000	87.1117	69.0475	72.4221	4.7991	1.0000
3.4000	87.7209	69.7187	73.2345	4.7991	1.0000
3.5000	88.3301	70.3899	74.0468	4.7991	1.0000
3.6000	88.9393	71.0611	74.8592	4.7991	1.0000
3.7000	89.5485	71.7324	75.6716	4.7991	1.0000
3.8000	90.0828	72.3399	76.3981	4.7991	1.0000
3.9000	89.7558	72.2149	76.1373	4.7958	1.0000
4.0000	89.4287	72.0899	75.8765	4.7926	1.0000
4.1000	89.1017	71.9650	75.6158	4.7894	1.0000
4.2000	88.7747	71.8400	75.3550	4.7862	1.0000
4.3000	88.4477	71.7151	75.0942	4.7829	1.0000
4.4000	88.1207	71.5901	74.8334	4.7797	1.0000
4.5000	87.7937	71.4651	74.5727	4.7765	1.0000
4.6000	87.4667	71.3402	74.3119	4.7733	1.0000
4.7000	87.1397	71.2152	74.0511	4.7700	1.0000
4.8000	86.8127	71.0903	73.7903	4.7668	1.0000
4.9000	86.6326	70.9465	73.6415	4.7636	1.0000
5.0000	86.5155	70.7948	73.5407	4.7604	1.0000
5.1000	86.3984	70.6430	73.4398	4.7571	1.0000
5.2000	86.2812	70.4912	73.3390	4.7539	1.0000
5.3000	86.1641	70.3395	73.2382	4.7507	1.0000
5.4000	86.0470	70.1877	73.1373	4.7475	1.0000
5.5000	85.9298	70.0360	73.0365	4.7442	1.0000
5.6000	85.8127	69.8842	72.9357	4.7410	1.0000
5.7000	85.6956	69.7324	72.8348	4.7378	1.0000
5.8000	85.4571	69.4550	72.7085	4.7346	1.0000
5.9000	85.0763	69.0300	72.5522	4.7313	1.0000
6.0000	84.6955	68.6050	72.3959	4.7281	1.0000
6.1000	84.3147	68.1800	72.2396	4.7249	1.0000
6.2000	83.9339	67.7550	72.0834	4.7216	1.0000
6.3000	83.5531	67.3300	71.9271	4.7184	1.0000
6.4000	83.1722	66.9050	71.7708	4.7152	1.0000
6.5000	82.7914	66.4801	71.6145	4.7120	1.0000
6.6000	82.6846	66.5043	71.7911	4.7087	1.0000
6.7000	82.9560	67.1491	72.4275	4.7055	1.0000
6.8000	83.2275	67.7938	73.0638	4.7023	1.0000
6.9000	83.4990	68.4385	73.7002	4.6991	1.0000
7.0000	83.7705	69.0833	74.3365	4.6958	1.0000
7.1000	84.0420	69.7280	74.9729	4.6926	1.0000
7.2000	84.3134	70.3727	75.6092	4.6894	1.0000
7.3000	84.5849	71.0175	76.2456	4.6862	1.0000
7.4000	84.8043	71.4785	76.7590	4.6829	1.0000
7.5000	84.8897	71.4670	76.9561	4.6806	1.0000
7.6000	84.9751	71.4556	77.1532	4.6851	1.0000
7.7000	85.0605	71.4441	77.3503	4.6896	1.0000
7.8000	85.1459	71.4327	77.5475	4.6941	1.0000
7.9000	85.2313	71.4213	77.7446	4.6986	1.0000
8.0000	85.3167	71.4098	77.9417	4.7031	1.0000
8.1000	85.4020	71.3984	78.1388	4.7076	1.0000
8.2000	85.4874	71.3869	78.3359	4.7121	1.0000
8.3000	85.4743	71.2457	78.1634	4.7166	1.0000
8.4000	85.4613	71.1045	77.9908	4.7211	1.0000
8.5000	85.4482	70.9632	77.8182	4.7256	1.0000
8.6000	85.4351	70.8220	77.6456	4.7301	1.0000
8.7000	85.4220	70.6808	77.4730	4.7346	1.0000
8.8000	85.4089	70.5395	77.3005	4.7391	1.0000
8.9000	85.3958	70.3983	77.1279	4.7436	1.0000
9.0000	85.3828	70.2571	76.9553	4.7481	1.0000
9.1000	85.3697	70.1158	76.7827	4.7526	1.0000
9.2000	85.3444	69.9518	76.7126	4.7571	1.0000
9.3000	85.3140	69.7780	76.6864	4.7616	1.0000
9.4000	85.2835	69.6041	76.6603	4.7661	1.0000
9.5000	85.2530	69.4303	76.6341	4.7706	1.0000
9.6000	85.2226	69.2565	76.6079	4.7751	1.0000
9.7000	85.1921	69.0827	76.5817	4.7796	1.0000
9.8000	85.1616	68.9088	76.5556	4.7841	1.0000
9.9000	85.1312	68.7350	76.5294	4.7886	1.0000
10.0000	85.1007	68.5612	76.5032	4.7930	1.0000
10.1000	85.0702	68.3874	76.4770	4.7975	1.0000
10.2000	84.9683	68.2382	76.3174	4.8020	1.0000
10.3000	84.8634	68.0901	76.1522	4.8065	1.0000
10.4000	84.7585	67.9421	75.9870	4.8110	1.0000
10.5000	84.6537	67.7940	75.8218	4.8155	1.0000
10.6000	84.5488	67.6459	75.6566	4.8200	1.0000
10.7000	84.4439	67.4978	75.4913	4.8245	1.0000
10.8000	84.3390	67.3497	75.3261	4.8290	1.0000
10.9000	84.2341	67.2016	75.1609	4.8335	1.0000
11.0000	84.0353	66.9908	74.9217	4.8380	1.0000
11.1000	83.6543	66.6581	74.5388	4.8425	1.0000
11.2000	83.2732	66.3254	74.1559	4.8470	1.0000
11.3000	82.8922	65.9927	73.7729	4.8515	1.0000
11.4000	82.5111	65.6601	73.3900	4.8560	1.0000
11.5000	82.1300	65.3274	73.0071	4.8605	1.0000
11.6000	81.7490	64.9947	72.6242	4.8650	1.0000
11.7000	81.3679	64.6620	72.2412	4.8695	1.0000
11.8000	81.8838	65.2162	73.0168	4.8740	1.0000
11.9000	82.5221	65.8912	73.9504	4.8785	1.0000
12.0000	83.1603	66.5663	74.8839	4.8830	1.0000
12.1000	83.7986	67.2413	75.8174	4.8875	1.0000
12.2000	84.4368	67.9164	76.7510	4.8920	1.0000
12.3000	85.0751	68.5915	77.6845	4.8965	1.0000
12.4000	85.7133	69.2665	78.6181	4.9010	1.0000
12.5000	86.1447	69.8463	79.1815	4.9055	1.0000
12.6000	86.5107	70.3959	79.6281	4.9100	1.0000
12.7000	86.8767	70.9456	80.0747	4.9145	1.0000
12.8000	87.2427	71.4952	80.5213	4.9190	1.0000
12.9000	87.6087	72.0448	80.9679	4.9218	1.0000
13.0000	87.9747	72.5945	81.4145	4.9237	1.0000
13.1000	88.3407	73.1441	81.8611	4.9256	1.0000
13.2000	88.4513	73.3283	81.9325	4.9275	1.0000
13.3000	88.0194	72.7360	81.2064	4.9294	1.0000
13.4000	87.5874	72.1437	80.4803	4.9313	1.0000
13.5000	87.1554	71.5514	79.7543	4.9332	1.0000
13.6000	86.7234	70.9591	79.0282	4.9352	1.0000
13.7000	86.2914	70.3668	78.3021	4.9371	1.0000
13.8000	85.8594	69.7746	77.5760	4.9390	1.0000
13.9000	85.4274	69.1823	76.8500	4.9409	1.0000
14.0000	84.9954	68.5900	76.1239	4.9428	1.0000
14.1000	84.5634	67.9977	75.3978	4.9447	1.0000
14.2000	84.1315	67.4054	74.6717	4.9466	1.0000
14.3000	83.9097	67.0391	74.1380	4.9485	1.0000
14.4000	83.8063	66.8000	73.7125	4.9504	1.0000
14.5000	83.7028	66.5609	73.2870	4.9523	1.0000
14.6000	83.5994	66.3218	72.8614	4.9542	1.0000
14.7000	83.4960	66.0827	72.4359	4.9562	1.0000
14.8000	83.3925	65.8436	72.0104	4.9581	1.0000
14.9000	83.2891	65.6046	71.5849	4.9600	1.0000
15.0000	83.1856	65.3655	71.1593	4.9619	1.0000
15.1000	83.0822	65.1264	70.7338	4.9638	1.0000
15.2000	82.9787	64.8873	70.3083	4.9657	1.0000
15.3000	82.9926	65.1218	70.4958	4.9676	1.0000
15.4000	83.0166	65.3974	70.7366	4.9695	1.0000
15.5000	83.0407	65.6731	70.9775	4.9714	1.0000
15.6000	83.0647	65.9488	71.2183	4.9733	1.0000
15.7000	83.0887	66.2244	71.4592	4.9752	1.0000
15.8000	83.1128	66.5001	71.7000	4.9771	1.0000
15.9000	83.1368	66.7758	71.9408	4.9791	1.0000
16.0000	83.1608	67.0514	72.1817	4.9810	1.0000
16.1000	83.0060	67.0910	72.1836	4.9829	1.0000
16.2000	82.6859	66.9125	71.9649	4.9848	1.0000
16.3000	82.3659	66.7341	71.7463	4.9867	1.0000
16.4000	82.0458	66.5556	71.5276	4.9886	1.0000
16.5000	81.7258	66.3771	71.3089	4.9905	1.0000
16.6000	81.4057	66.1987	71.0903	4.9924	1.0000
16.7000	81.0857	66.0202	70.8716	4.9943	1.0000
16.8000	80.8128	65.8901	70.7077	4.9962	1.0000
16.9000	81.2792	66.5177	71.4007	4.9981	1.0000
17.0000	81.7455	67.1452	72.0937	5.0000	1.0000
17.1000	82.2119	67.7728	72.7867	5.0020	1.0000
17.2000	82.6782	68.4004	73.4797	5.0039	1.0000
17.3000	83.1446	69.0279	74.1726	5.0058	1.0000
17.4000	83.6109	69.6555	74.8656	5.0077	1.0000
17.5000	84.0773	70.2830	75.5586	5.0096	1.0000
17.6000	84.5172	70.7783	76.2738	5.0112	1.0000
17.7000	84.9528	71.2520	76.9926	5.0068	1.0000
17.8000	85.3885	71.7257	77.7115	5.0024	1.0000
17.9000	85.8241	72.1994	78.4303	4.9980	1.0000
18.0000	86.2597	72.6731	79.1491	4.9936	1.0000
18.1000	86.6954	73.1468	79.8679	4.9892	1.0000
18.2000	87.1310	73.6206	80.5867	4.9848	1.0000
18.3000	87.4253	73.9915	80.9778	4.9804	1.0000
18.4000	87.5992	74.2749	81.0897	4.9760	1.0000
18.5000	87.7731	74.5583	81.2017	4.9716	1.0000
18.6000	87.9469	74.8417	81.3136	4.9671	1.0000
18.7000	88.1208	75.1251	81.4255	4.9627	1.0000
18.8000	88.2947	75.4085	81.5374	4.9583	1.0000
18.9000	88.4686	75.6919	81.6494	4.9539	1.0000
19.0000	88.6424	75.9753	81.7613	4.9495	1.0000
19.1000	88.6673	76.0184	81.8036	4.9451	1.0000
19.2000	88.3754	75.5506	81.6978	4.9407	1.0000
19.3000	88.0836	75.0828	81.5921	4.9363	1.0000
19.4000	87.7917	74.6151	81.4864	4.9319	1.0000
19.5000	87.4998	74.1473	81.3807	4.9275	1.0000
19.6000	87.2080	73.6795	81.2749	4.9230	1.0000
19.7000	86.9161	73.2118	81.1692	4.9186	1.0000
19.8000	86.6242	72.7440	81.0635	4.9142	1.0000
19.9000	86.3324	72.2762	80.9578	4.9098	1.0000
20.0000	86.0405	71.8085	80.8520	4.9054	1.0000
20.1000	85.8037	71.3658	80.6898	4.9010	1.0000
20.2000	86.2002	71.2112	79.8772	4.8966	1.0000
20.3000	86.5968	71.0566	79.0646	4.8922	1.0000
20.4000	86.9933	70.9021	78.2520	4.8878	1.0000
20.5000	87.3899	70.7475	77.4393	4.8834	1.0000
20.6000	87.7864	70.5929	76.6267	4.8789	1.0000
20.7000	88.1830	70.4384	75.8141	4.8745	1.0000
20.8000	88.5795	70.2838	75.0015	4.8701	1.0000
20.9000	88.7613	70.2571	74.6971	4.8657	1.0000
21.0000	88.6697	70.3931	75.0394	4.8613	1.0000
21.1000	88.5781	70.5291	75.3817	4.8569	1.0000
21.2000	88.4865	70.6651	75.7240	4.8525	1.0000
21.3000	88.3949	70.8011	76.0663	4.8481	1.0000
21.4000	88.3033	70.9372	76.4085	4.8437	1.0000
21.5000	88.2117	71.0732	76.7508	4.8393	1.0000
21.6000	88.2390	71.3621	76.9836	4.8348	1.0000
21.7000	88.3277	71.7297	77.1601	4.8304	1.0000
21.8000	88.4164	72.0973	77.3365	4.8260	1.0000
21.9000	88.5051	72.4650	77.5129	4.8216	1.0000
22.0000	88.5938	72.8326	77.6893	4.8172	1.0000
22.1000	88.6825	73.2003	77.8657	4.8128	1.0000
22.2000	88.7712	73.5679	78.0421	4.8084	1.0000
22.3000	89.0698	73.6601	78.4421	4.8040	1.0000
22.4000	89.4347	73.6653	78.9127	4.7996	1.0000
22.5000	89.7996	73.6704	79.3834	4.7995	1.0000
22.6000	90.1645	73.6756	79.8540	4.8035	1.0000
22.7000	90.5293	73.6808	80.3246	4.8074	1.0000
22.8000	90.8942	73.6860	80.7952	4.8114	1.0000
22.9000	91.2591	73.6912	81.2658	4.8153	1.0000
23.0000	91.2067	73.3543	81.0639	4.8193	1.0000
23.1000	90.7989	72.7261	80.2893	4.8232	1.0000
23.2000	90.3912	72.0978	79.5146	4.8272	1.0000
23.3000	89.9834	71.4696	78.7399	4.8311	1.0000
23.4000	89.5756	70.8413	77.9652	4.8351	1.0000
23.5000	89.1678	70.2131	77.1906	4.8390	1.0000
23.6000	88.7600	69.5849	76.4159	4.8430	1.0000
23.7000	88.3522	68.9566	75.6412	4.8469	1.0000
23.8000	87.9444	68.3284	74.8666	4.8509	1.0000
23.9000	87.5366	67.7001	74.0919	4.8548	1.0000
24.0000	87.1289	67.0719	73.3172	4.8588	1.0000
24.1000	86.8640	66.5089	72.6481	4.8628	1.0000
24.2000	86.7027	65.9931	72.0553	4.8667	1.0000
24.3000	86.5414	65.4774	71.4626	4.8707	1.0000
24.4000	86.3801	64.9617	70.8699	4.8746	1.0000
24.5000	86.2188	64.4459	70.2771	4.8786	1.0000
24.6000	86.0574	63.9302	69.6844	4.8825	1.0000
24.7000	85.8961	63.4144	69.0917	4.8865	1.0000
24.8000	85.7348	62.8987	68.4989	4.8904	1.0000
24.9000	85.5735	62.3830	67.9062	4.8944	1.0000
25.0000	85.4122	61.8672	67.3135	4.8983	1.0000
25.1000	85.2509	61.3515	66.7207	4.9023	1.0000
25.2000	84.9460	61.4557	66.8496	4.9062	1.0000
25.3000	84.6411	61.5600	66.9785	4.9102	1.0000
25.4000	84.3362	61.6642	67.1074	4.9141	1.0000
25.5000	84.0313	61.7685	67.2363	4.9181	1.0000
25.6000	83.7264	61.8727	67.3652	4.9220	1.0000
25.7000	83.4215	61.9770	67.4941	4.9260	1.0000
25.8000	83.1166	62.0812	67.6230	4.9300	1.0000
25.9000	82.8117	62.1855	67.7519	4.9339	1.0000
26.0000	82.5069	62.2897	67.8808	4.9379	1.0000
26.1000	82.1087	62.3304	67.8601	4.9418	1.0000
26.2000	81.6744	62.3464	67.7813	4.9458	1.0000
26.3000	81.2400	62.3624	67.7024	4.9497	1.0000
26.4000	80.8057	62.3784	67.6236	4.9537	1.0000
26.5000	80.3713	62.3943	67.5447	4.9576	1.0000
26.6000	79.9369	62.4103	67.4659	4.9616	1.0000
26.7000	79.5026	62.4263	67.3871	4.9655	1.0000
26.8000	79.2650	62.6146	67.5322	4.9695	1.0000
26.9000	79.9240	63.5881	68.6976	4.9734	1.0000
27.0000	80.5831	64.5615	69.8629	4.9774	1.0000
27.1000	81.2421	65.5349	71.0283	4.9813	1.0000
27.2000	81.9011	66.5083	72.1937	4.9853	1.0000
27.3000	82.5602	67.4817	73.3590	4.9893	1.0000
27.4000	83.2192	68.4552	74.5244	4.9932	1.0000
27.5000	83.8742	69.4255	75.6839	4.9972	1.0000
27.6000	84.3336	70.2440	76.5586	4.9988	1.0000
27.7000	84.7929	71.0626	77.4332	4.9991	1.0000
27.8000	85.2523	71.8812	78.3078	4.9994	1.0000
27.9000	85.7116	72.6997	79.1824	4.9997	1.0000
28.0000	86.1709	73.5183	80.0570	5.0000	1.0000
28.1000	86.6303	74.3368	80.9316	5.0003	1.0000
28.2000	87.0896	75.1554	81.8062	5.0006	1.0000
28.3000	87.1611	75.3570	81.9901	5.0009	1.0000
28.4000	86.8125	74.8903	81.4257	5.0012	1.0000
28.5000	86.4638	74.4236	80.8613	5.0015	1.0000
28.6000	86.1151	73.9569	80.2969	5.0018	1.0000
28.7000	85.7665	73.4902	79.7324	5.0021	1.0000
28.8000	85.4178	73.0235	79.1680	5.0025	1.0000
28.9000	85.0692	72.5568	78.6036	5.0028	1.0000
29.0000	84.7205	72.0901	78.0392	5.0031	1.0000
29.1000	84.3719	71.6234	77.4748	5.0034	1.0000
29.2000	84.0232	71.1567	76.9104	5.0037	1.0000
29.3000	83.6746	70.6899	76.3460	5.0040	1.0000
29.4000	83.5725	70.2941	75.9129	5.0043	1.0000
29.5000	83.5762	69.9286	75.5361	5.0046	1.0000
29.6000	83.5799	69.5632	75.1593	5.0049	1.0000
29.7000	83.5835	69.1977	74.7826	5.0052	1.0000
29.8000	83.5872	68.8323	74.4058	5.0055	1.0000
29.9000	83.5909	68.4668	74.0290	5.0058	1.0000
30.0000	83.5946	68.1013	73.6523	5.0061	1.0000
30.1000	83.5982	67.7359	73.2755	5.0064	1.0000
30.2000	83.6019	67.3704	72.8987	5.0067	1.0000
30.3000	83.6056	67.0050	72.5219	5.0070	1.0000
30.4000	83.3622	66.9477	72.4425	5.0073	1.0000
30.5000	83.1085	66.9032	72.3754	5.0077	1.0000
30.6000	82.8549	66.8587	72.3083	5.0080	1.0000
30.7000	82.6012	66.8143	72.2412	5.0083	1.0000
30.8000	82.3475	66.7698	72.1741	5.0086	1.0000
30.9000	82.0939	66.7254	72.1071	5.0089	1.0000
31.0000	81.8402	66.6809	72.0400	5.0092	1.0000
31.1000	81.7907	66.8642	72.1989	5.0095	1.0000
31.2000	82.4652	67.8548	73.1592	5.0098	1.0000
31.3000	83.1398	68.8454	74.1194	5.0101	1.0000
31.4000	83.8143	69.8360	75.0797	5.0104	1.0000
31.5000	84.4888	70.8266	76.0400	5.0107	1.0000
31.6000	85.1633	71.8172	77.0002	5.0110	1.0000
31.7000	85.8378	72.8079	77.9605	5.0113	1.0000
31.8000	86.5123	73.7985	78.9207	5.0116	1.0000
31.9000	86.8936	74.2249	79.3664	5.0119	1.0000
32.0000	87.2563	74.6152	79.7792	5.0122	1.0000
32.1000	87.6190	75.0056	80.1921	5.0120	1.0000
32.2000	87.9816	75.3960	80.6049	5.0092	1.0000
32.3000	88.3443	75.7864	81.0177	5.0063	1.0000
32.4000	88.7069	76.1768	81.4306	5.0034	1.0000
32.5000	89.0696	76.5671	81.8434	5.0006	1.0000
32.6000	89.4322	76.9575	82.2562	4.9977	1.0000
32.7000	89.4191	76.8558	82.1599	4.9948	1.0000
32.8000	88.9648	76.1765	81.4657	4.9919	1.0000
32.9000	88.5105	75.4971	80.7716	4.9891	1.0000
33.0000	88.0562	74.8178	80.0775	4.9862	1.0000
33.1000	87.6019	74.1384	79.3834	4.9833	1.0000
33.2000	87.1476	73.4591	78.6893	4.9804	1.0000
33.3000	86.6933	72.7797	77.9952	4.9776	1.0000
33.4000	86.2390	72.1004	77.3011	4.9747	1.0000
33.5000	85.7847	71.4210	76.6070	4.9718	1.0000
33.6000	85.3304	70.7417	75.9129	4.9690	1.0000
33.7000	84.8761	70.0623	75.2187	4.9661	1.0000
33.8000	84.5602	69.5467	74.6223	4.9632	1.0000
33.9000	84.5672	69.4130	74.2538	4.9603	1.0000
34.0000	84.5742	69.2794	73.8853	4.9575	1.0000
34.1000	84.5811	69.1458	73.5168	4.9546	1.0000
34.2000	84.5881	69.0121	73.1483	4.9517	1.0000
34.3000	84.5951	68.8785	72.7797	4.9488	1.0000
34.4000	84.6021	68.7449	72.4112	4.9460	1.0000
34.5000	84.6091	68.6112	72.0427	4.9431	1.0000
34.6000	84.6161	68.4776	71.6742	4.9402	1.0000
34.7000	84.4561	68.3131	71.5226	4.9374	1.0000
34.8000	84.2690	68.1435	71.4063	4.9345	1.0000
34.9000	84.0819	67.9740	71.2900	4.9316	1.0000
35.0000	83.8948	67.8044	71.1737	4.9287	1.0000
35.1000	83.7076	67.6349	71.0573	4.9259	1.0000
35.2000	83.5205	67.4653	70.9410	4.9230	1.0000
35.3000	83.3334	67.2958	70.8247	4.9201	1.0000
35.4000	83.1463	67.1262	70.7084	4.9173	1.0000
35.5000	83.3457	67.3878	70.9620	4.9144	1.0000
35.6000	83.6417	67.7572	71.3080	4.9115	1.0000
35.7000	83.9377	68.1266	71.6541	4.9086	1.0000
35.8000	84.2337	68.4959	72.0001	4.9058	1.0000
35.9000	84.5298	68.8653	72.3462	4.9029	1.0000
36.0000	84.8258	69.2347	72.6922	4.9014	1.0000
36.1000	85.1218	69.6040	73.0383	4.9013	1.0000
36.2000	85.4179	69.9734	73.3843	4.9013	1.0000
36.3000	85.3832	69.9343	73.3643	4.9012	1.0000
36.4000	85.1624	69.6655	73.1384	4.9012	1.0000
36.5000	84.9417	69.3967	72.9124	4.9012	1.0000
36.6000	84.7209	69.1279	72.6865	4.9011	1.0000
36.7000	84.5002	68.8591	72.4606	4.9011	1.0000
36.8000	84.2795	68.5903	72.2346	4.9010	1.0000
36.9000	84.0587	68.3215	72.0087	4.9010	1.0000
37.0000	83.8380	68.0527	71.7828	4.9009	1.0000
37.1000	83.6172	67.7839	71.5569	4.9009	1.0000
37.2000	83.3965	67.5151	71.3309	4.9009	1.0000
37.3000	83.1899	67.2511	71.1147	4.9008	1.0000
37.4000	83.0086	66.9956	70.9158	4.9008	1.0000
37.5000	82.8272	66.7402	70.7169	4.9007	1.0000
37.6000	82.6459	66.4847	70.5179	4.9007	1.0000
37.7000	82.4645	66.2293	70.3190	4.9006	1.0000
37.8000	82.2832	65.9738	70.1201	4.9006	1.0000
37.9000	82.1018	65.7184	69.9212	4.9005	1.0000
38.0000	81.9205	65.4629	69.7222	4.9005	1.0000
38.1000	81.7391	65.2075	69.5233	4.9005	1.0000
38.2000	81.5578	64.9520	69.3244	4.9004	1.0000
38.3000	81.3764	64.6966	69.1255	4.9004	1.0000
38.4000	81.2176	64.5882	69.0750	4.9003	1.0000
38.5000	81.0674	64.5371	69.0823	4.9003	1.0000
38.6000	80.9173	64.4860	69.0896	4.9002	1.0000
38.7000	80.7671	64.4348	69.0969	4.9002	1.0000
38.8000	80.6170	64.3837	69.1042	4.9002	1.0000
38.9000	80.4669	64.3326	69.1115	4.9001	1.0000
39.0000	80.3167	64.2814	69.1187	4.9001	1.0000
39.1000	80.1666	64.2303	69.1260	4.9000	1.0000
39.2000	80.0165	64.1792	69.1333	4.9000	1.0000
39.3000	79.8657	64.1337	69.1466	4.8999	1.0000
39.4000	79.6869	64.3652	69.4533	4.8999	1.0000
39.5000	79.5081	64.5968	69.7600	4.8998	1.0000
39.6000	79.3293	64.8283	70.0667	4.8998	1.0000
39.7000	79.1505	65.0599	70.3734	4.8998	1.0000
39.8000	78.9717	65.2914	70.6801	4.8997	1.0000
39.9000	78.7928	65.5230	70.9868	4.8997	1.0000
40.0000	78.6140	65.7545	71.2935	4.8996	1.0000
40.1000	78.7129	66.1111	71.8470	4.8996	1.0000
40.2000	79.0682	66.5832	72.6284	4.8995	1.0000
40.3000	79.4235	67.0552	73.4097	4.8995	1.0000
40.4000	79.7788	67.5272	74.1910	4.8995	1.0000
40.5000	80.1340	67.9992	74.9723	4.8994	1.0000
40.6000	80.4893	68.4712	75.7536	4.8994	1.0000
40.7000	80.8446	68.9433	76.5349	4.8993	1.0000
40.8000	81.3069	69.5468	77.3044	4.8993	1.0000
40.9000	81.9437	70.3649	78.0546	4.8992	1.0000
41.0000	82.5806	71.1830	78.8048	4.8992	1.0000
41.1000	83.2174	72.0012	79.5551	4.8991	1.0000
41.2000	83.8543	72.8193	80.3053	4.8985	1.0000
41.3000	84.4912	73.6374	81.0555	4.8974	1.0000
41.4000	85.1280	74.4555	81.8057	4.8963	1.0000
41.5000	85.5779	75.0167	82.3134	4.8952	1.0000
41.6000	85.2798	74.5505	81.8510	4.8941	1.0000
41.7000	84.9818	74.0843	81.3885	4.8930	1.0000
41.8000	84.6837	73.6180	80.9260	4.8919	1.0000
41.9000	84.3857	73.1518	80.4635	4.8908	1.0000
42.0000	84.0876	72.6855	80.0010	4.8897	1.0000
42.1000	83.7896	72.2193	79.5386	4.8886	1.0000
42.2000	83.4915	71.7530	79.0761	4.8875	1.0000
42.3000	83.1934	71.2868	78.6136	4.8864	1.0000
42.4000	82.8954	70.8206	78.1511	4.8853	1.0000
42.5000	82.5973	70.3543	77.6886	4.8842	1.0000
42.6000	82.3619	69.8966	77.2243	4.8830	1.0000
42.7000	82.4116	69.4778	76.7515	4.8819	1.0000
42.8000	82.4614	69.0591	76.2787	4.8808	1.0000
42.9000	82.5111	68.6403	75.8059	4.8797	1.0000
43.0000	82.5609	68.2215	75.3332	4.8786	1.0000
43.1000	82.6106	67.8028	74.8604	4.8775	1.0000
43.2000	82.6604	67.3840	74.3876	4.8764	1.0000
43.3000	82.7101	66.9652	73.9148	4.8753	1.0000
43.4000	82.7599	66.5464	73.4420	4.8742	1.0000
43.5000	82.8096	66.1277	72.9692	4.8731	1.0000
43.6000	82.8415	65.7600	72.5712	4.8720	1.0000
43.7000	82.7426	65.7668	72.7216	4.8709	1.0000
43.8000	82.6436	65.7735	72.8720	4.8698	1.0000
43.9000	82.5447	65.7803	73.0224	4.8686	1.0000
44.0000	82.4457	65.7871	73.1729	4.8675	1.0000
44.1000	82.3468	65.7939	73.3233	4.8664	1.0000
44.2000	82.2478	65.8007	73.4737	4.8653	1.0000
44.3000	82.1489	65.8075	73.6241	4.8642	1.0000
44.4000	82.0499	65.8143	73.7745	4.8631	1.0000
44.5000	81.9856	65.7896	73.7883	4.8620	1.0000
44.6000	81.9311	65.7559	73.7636	4.8609	1.0000
44.7000	81.8765	65.7223	73.7389	4.8598	1.0000
44.8000	81.8220	65.6887	73.7143	4.8587	1.0000
44.9000	81.7675	65.6551	73.6896	4.8576	1.0000
45.0000	81.7129	65.6215	73.6649	4.8565	1.0000
45.1000	81.6584	65.5878	73.6402	4.8554	1.0000
45.2000	81.6038	65.5542	73.6155	4.8543	1.0000
45.3000	81.7702	65.7613	73.6251	4.8531	1.0000
45.4000	82.0062	66.0444	73.6454	4.8520	1.0000
45.5000	82.2423	66.3275	73.6657	4.8509	1.0000
45.6000	82.4784	66.6105	73.6860	4.8498	1.0000
45.7000	82.7145	66.8936	73.7063	4.8490	1.0000
45.8000	82.9506	67.1767	73.7266	4.8500	1.0000
45.9000	83.1866	67.4598	73.7469	4.8509	1.0000
46.0000	83.4227	67.7429	73.7672	4.8519	1.0000
46.1000	83.5862	67.9141	73.7629	4.8528	1.0000
46.2000	83.5632	67.7979	73.6954	4.8538	1.0000
46.3000	83.5402	67.6816	73.6279	4.8548	1.0000
46.4000	83.5172	67.5653	73.5604	4.8557	1.0000
46.5000	83.4942	67.4491	73.4929	4.8567	1.0000
46.6000	83.4712	67.3328	73.4254	4.8576	1.0000
46.7000	83.4482	67.2166	73.3578	4.8586	1.0000
46.8000	83.4251	67.1003	73.2903	4.8595	1.0000
46.9000	83.4021	66.9840	73.2228	4.8605	1.0000
47.0000	83.3791	66.8678	73.1553	4.8614	1.0000
47.1000	83.3111	66.6982	72.9620	4.8624	1.0000
47.2000	83.1558	66.4252	72.5246	4.8633	1.0000
47.3000	83.0004	66.1523	72.0872	4.8643	1.0000
47.4000	82.8451	65.8793	71.6498	4.8652	1.0000
47.5000	82.6897	65.6063	71.2124	4.8662	1.0000
47.6000	82.5344	65.3333	70.7750	4.8671	1.0000
47.7000	82.3790	65.0603	70.3377	4.8681	1.0000
47.8000	82.2237	64.7873	69.9003	4.8690	1.0000
47.9000	82.0683	64.5143	69.4629	4.8700	1.0000
48.0000	81.9130	64.2414	69.0255	4.8709	1.0000
48.1000	81.7577	63.9684	68.5881	4.8719	1.0000
48.2000	81.6324	63.7979	68.2610	4.8728	1.0000
48.3000	81.5656	63.8264	68.1483	4.8738	1.0000
48.4000	81.4988	63.8549	68.0355	4.8747	1.0000
48.5000	81.4320	63.8834	67.9227	4.8757	1.0000
48.6000	81.3652	63.9119	67.8099	4.8766	1.0000
48.7000	81.2984	63.9404	67.6971	4.8776	1.0000
48.8000	81.2316	63.9689	67.5843	4.8785	1.0000
48.9000	81.1648	63.9974	67.4715	4.8795	1.0000
49.0000	81.0980	64.0259	67.3587	4.8804	1.0000
49.1000	81.0312	64.0544	67.2459	4.8814	1.0000
49.2000	80.7154	63.8876	67.1932	4.8823	1.0000
49.3000	80.3838	63.7083	67.1444	4.8833	1.0000
49.4000	80.0522	63.5289	67.0955	4.8842	1.0000
49.5000	79.7205	63.3496	67.0466	4.8852	1.0000
49.6000	79.3889	63.1703	66.9977	4.8861	1.0000
49.7000	79.0572	62.9910	66.9488	4.8871	1.0000
49.8000	78.7256	62.8117	66.9000	4.8881	1.0000
49.9000	78.3939	62.6323	66.8511	4.8890	1.0000
50.0000	78.8827	63.4591	67.7180	4.8900	1.0000
50.1000	79.4239	64.3501	68.6434	4.8909	1.0000
50.2000	79.9651	65.2411	69.5688	4.8919	1.0000
50.3000	80.5063	66.1320	70.4943	4.8928	1.0000
50.4000	81.0475	67.0230	71.4197	4.8933	1.0000
50.5000	81.5887	67.9140	72.3451	4.8922	1.0000
50.6000	82.1299	68.8050	73.2705	4.8912	1.0000
50.7000	82.6510	69.6110	74.1810	4.8901	1.0000
50.8000	83.1519	70.3321	75.0768	4.8891	1.0000
50.9000	83.6528	71.0531	75.9725	4.8880	1.0000
51.0000	84.1537	71.7742	76.8682	4.8870	1.0000
51.1000	84.6547	72.4953	77.7639	4.8859	1.0000
51.2000	85.1556	73.2164	78.6596	4.8849	1.0000
51.3000	85.6565	73.9374	79.5554	4.8838	1.0000
51.4000	86.1574	74.6585	80.4511	4.8828	1.0000
51.5000	86.0350	74.3639	80.2469	4.8817	1.0000
51.6000	85.7937	73.8759	79.8332	4.8807	1.0000
51.7000	85.5525	73.3878	79.4195	4.8796	1.0000
51.8000	85.3113	72.8997	79.0058	4.8786	1.0000
51.9000	85.0701	72.4117	78.5921	4.8775	1.0000
52.0000	84.8289	71.9236	78.1784	4.8765	1.0000
52.1000	84.5876	71.4356	77.7647	4.8754	1.0000
52.2000	84.3464	70.9475	77.3510	4.8744	1.0000
52.3000	84.1052	70.4594	76.9374	4.8733	1.0000
52.4000	83.8640	69.9714	76.5237	4.8723	1.0000
52.5000	83.6227	69.4833	76.1100	4.8712	1.0000
52.6000	83.5017	69.0601	75.7146	4.8702	1.0000
52.7000	83.4916	68.6967	75.3361	4.8691	1.0000
52.8000	83.4815	68.3332	74.9576	4.8681	1.0000
52.9000	83.4715	67.9698	74.5791	4.8670	1.0000
53.0000	83.4614	67.6064	74.2006	4.8660	1.0000
53.1000	83.4513	67.2430	73.8222	4.8649	1.0000
53.2000	83.4412	66.8796	73.4437	4.8639	1.0000
53.3000	83.4311	66.5162	73.0652	4.8629	1.0000
53.4000	83.4211	66.1527	72.6867	4.8618	1.0000
53.5000	83.4110	65.7893	72.3082	4.8608	1.0000
53.6000	83.2846	65.5144	72.1154	4.8597	1.0000
53.7000	83.0324	65.3355	72.1238	4.8587	1.0000
53.8000	82.7801	65.1565	72.1323	4.8576	1.0000
53.9000	82.5278	64.9775	72.1407	4.8566	1.0000
54.0000	82.2755	64.7985	72.1491	4.8555	1.0000
54.1000	82.0232	64.6195	72.1575	4.8545	1.0000
54.2000	81.7710	64.4405	72.1659	4.8534	1.0000
54.3000	81.5187	64.2615	72.1743	4.8524	1.0000
54.4000	81.5913	64.4907	72.5625	4.8513	1.0000
54.5000	82.1127	65.2836	73.4751	4.8503	1.0000
54.6000	82.6341	66.0765	74.3878	4.8492	1.0000
54.7000	83.1555	66.8694	75.3004	4.8482	1.0000
54.8000	83.6769	67.6623	76.2130	4.8471	1.0000
54.9000	84.1983	68.4552	77.1257	4.8461	1.0000
55.0000	84.7197	69.2481	78.0383	4.8450	1.0000
55.1000	85.2393	70.0279	78.9397	4.8440	1.0000
55.2000	85.7166	70.4937	79.5702	4.8429	1.0000
55.3000	86.1939	70.9596	80.2008	4.8419	1.0000
55.4000	86.6712	71.4254	80.8314	4.8408	1.0000
55.5000	87.1485	71.8913	81.4619	4.8433	1.0000
55.6000	87.6258	72.3572	82.0925	4.8475	1.0000
55.7000	88.1031	72.8230	82.7231	4.8517	1.0000
55.8000	88.5804	73.2889	83.3536	4.8559	1.0000
55.9000	88.9275	73.6052	83.7785	4.8601	1.0000
56.0000	88.7536	73.3236	83.3805	4.8643	1.0000
56.1000	88.5797	73.0420	82.9825	4.8685	1.0000
56.2000	88.4058	72.7604	82.5845	4.8727	1.0000
56.3000	88.2318	72.4788	82.1865	4.8769	1.0000
56.4000	88.0579	72.1972	81.7885	4.8811	1.0000
56.5000	87.8840	71.9155	81.3905	4.8853	1.0000
56.6000	87.7101	71.6339	80.9925	4.8895	1.0000
56.7000	87.5362	71.3523	80.5945	4.8937	1.0000
56.8000	87.3623	71.0707	80.1965	4.8979	1.0000
56.9000	87.1883	70.7891	79.7985	4.9021	1.0000
57.0000	87.0144	70.5075	79.4005	4.9063	1.0000
57.1000	87.1572	70.4572	79.0401	4.9105	1.0000
57.2000	87.3065	70.4116	78.6804	4.9147	1.0000
57.3000	87.4557	70.3659	78.3208	4.9189	1.0000
57.4000	87.6050	70.3203	77.9611	4.9231	1.0000
57.5000	87.7543	70.2747	77.6015	4.9273	1.0000
57.6000	87.9035	70.2291	77.2418	4.9315	1.0000
57.7000	88.0528	70.1835	76.8822	4.9356	1.0000
57.8000	88.2020	70.1379	76.5225	4.9398	1.0000
57.9000	88.3513	70.0923	76.1629	4.9440	1.0000
58.0000	88.5006	70.0467	75.8032	4.9482	1.0000
58.1000	88.5025	69.9963	75.4975	4.9524	1.0000
58.2000	88.4984	69.9456	75.1941	4.9566	1.0000
58.3000	88.4942	69.8950	74.8907	4.9608	1.0000
58.4000	88.4900	69.8443	74.5873	4.9650	1.0000
58.5000	88.4859	69.7937	74.2839	4.9692	1.0000
58.6000	88.4817	69.7430	73.9805	4.9734	1.0000
58.7000	88.4775	69.6923	73.6770	4.9776	1.0000
58.8000	88.4733	69.6417	73.3736	4.9818	1.0000
58.9000	88.4448	69.5623	73.0731	4.9860	1.0000
59.0000	88.0352	69.0321	72.8179	4.9902	1.0000
59.1000	87.6255	68.5020	72.5626	4.9944	1.0000
59.2000	87.2158	67.9719	72.3074	4.9986	1.0000
59.3000	86.8061	67.4418	72.0522	5.0028	1.0000
59.4000	86.3965	66.9116	71.7970	5.0070	1.0000
59.5000	85.9868	66.3815	71.5417	5.0112	1.0000
59.6000	85.5771	65.8514	71.2865	5.0154	1.0000
59.7000	85.1674	65.3212	71.0313	5.0196	1.0000
59.8000	85.3403	65.5294	71.1339	5.0238	1.0000
59.9000	85.6080	65.8577	71.2949	5.0280	1.0000
60.0000	85.8756	66.1860	71.4558	5.0322	1.0000
60.1000	86.1433	66.5143	71.6167	5.0364	1.0000
60.2000	86.4110	66.8426	71.7776	5.0406	1.0000
60.3000	86.6787	67.1710	71.9386	5.0447	1.0000
60.4000	86.9463	67.4993	72.0995	5.0489	1.0000
60.5000	87.2140	67.8276	72.2604	5.0531	1.0000
60.6000	87.2194	67.9276	72.2045	5.0512	1.0000
60.7000	87.0187	67.8481	71.9783	5.0480	1.0000
60.8000	86.8179	67.7687	71.7521	5.0449	1.0000
60.9000	86.6172	67.6892	71.5258	5.0418	1.0000
61.0000	86.4165	67.6098	71.2996	5.0387	1.0000
61.1000	86.2158	67.5303	71.0734	5.0355	1.0000
61.2000	86.0150	67.4508	70.8472	5.0324	1.0000
61.3000	85.8143	67.3714	70.6209	5.0293	1.0000
61.4000	85.6136	67.2919	70.3947	5.0261	1.0000
61.5000	85.4129	67.2125	70.1685	5.0230	1.0000
61.6000	85.2121	67.1330	69.9422	5.0199	1.0000
61.7000	84.9948	66.9234	69.6558	5.0167	1.0000
61.8000	84.7723	66.6728	69.3503	5.0136	1.0000
61.9000	84.5497	66.4221	69.0449	5.0105	1.0000
62.0000	84.3272	66.1714	68.7394	5.0073	1.0000
62.1000	84.1046	65.9207	68.4340	5.0042	1.0000
62.2000	83.8820	65.6700	68.1285	5.0011	1.0000
62.3000	83.6595	65.4193	67.8230	4.9979	1.0000
62.4000	83.4369	65.1686	67.5176	4.9948	1.0000
62.5000	83.2144	64.9179	67.2121	4.9917	1.0000
62.6000	82.9918	64.6672	66.9067	4.9885	1.0000
62.7000	82.7700	64.4247	66.6135	4.9854	1.0000
62.8000	82.5824	64.5807	66.9247	4.9823	1.0000
62.9000	82.3948	64.7367	67.2359	4.9791	1.0000
63.0000	82.2072	64.8927	67.5470	4.9760	1.0000
63.1000	82.0196	65.0487	67.8582	4.9729	1.0000
63.2000	81.8321	65.2047	68.1694	4.9697	1.0000
63.3000	81.6445	65.3607	68.4805	4.9666	1.0000
63.4000	81.4569	65.5167	68.7917	4.9635	1.0000
63.5000	81.2693	65.6727	69.1029	4.9603	1.0000
63.6000	81.1405	65.8351	69.3221	4.9572	1.0000
63.7000	81.0282	65.9993	69.5155	4.9541	1.0000
63.8000	80.9159	66.1635	69.7089	4.9509	1.0000
63.9000	80.8036	66.3277	69.9022	4.9478	1.0000
64.0000	80.6913	66.4919	70.0956	4.9447	1.0000
64.1000	80.5790	66.6562	70.2890	4.9416	1.0000
64.2000	80.4667	66.8204	70.4823	4.9384	1.0000
64.3000	80.4823	67.0591	70.7969	4.9353	1.0000
64.4000	80.9031	67.5338	71.4956	4.9322	1.0000
64.5000	81.3238	68.0085	72.1942	4.9290	1.0000
64.6000	81.7446	68.4833	72.8928	4.9259	1.0000
64.7000	82.1653	68.9580	73.5915	4.9228	1.0000
64.8000	82.5860	69.4327	74.2901	4.9196	1.0000
64.9000	83.0068	69.9074	74.9887	4.9164	1.0000
65.0000	83.4275	70.3822	75.6873	4.9133	1.0000
65.1000	83.6022	70.5955	76.0594	4.9101	1.0000
65.2000	83.3753	70.3824	75.8986	4.9069	1.0000
65.3000	83.1484	70.1693	75.7377	4.9038	1.0000
65.4000	82.9216	69.9562	75.5769	4.9006	1.0000
65.5000	82.6947	69.7431	75.4161	4.8974	1.0000
65.6000	82.4678	69.5299	75.2553	4.8943	1.0000
65.7000	82.2410	69.3168	75.0945	4.8911	1.0000
65.8000	82.0141	69.1037	74.9337	4.8879	1.0000
65.9000	81.7872	68.8906	74.7729	4.8847	1.0000
66.0000	81.5604	68.6775	74.6121	4.8816	1.0000
66.1000	81.3335	68.4644	74.4512	4.8784	1.0000
66.2000	81.1993	68.3185	74.2563	4.8752	1.0000
66.3000	81.1441	68.2299	74.0324	4.8721	1.0000
66.4000	81.0889	68.1413	73.8085	4.8689	1.0000
66.5000	81.0337	68.0528	73.5846	4.8657	1.0000
66.6000	80.9785	67.9642	73.3607	4.8625	1.0000
66.7000	80.9232	67.8756	73.1367	4.8594	1.0000
66.8000	80.8680	67.7870	72.9128	4.8562	1.0000
66.9000	80.8128	67.6984	72.6889	4.8530	1.0000
67.0000	80.7576	67.6099	72.4650	4.8499	1.0000
67.1000	80.7024	67.5213	72.2410	4.8467	1.0000
67.2000	80.5672	67.4398	72.1811	4.8435	1.0000
67.3000	80.3382	67.3665	72.3138	4.8403	1.0000
67.4000	80.1091	67.2933	72.4464	4.8372	1.0000
67.5000	79.8801	67.2201	72.5790	4.8340	1.0000
67.6000	79.6510	67.1469	72.7117	4.8308	1.0000
67.7000	79.4220	67.0737	72.8443	4.8277	1.0000
67.8000	79.1929	67.0005	72.9769	4.8245	1.0000
67.9000	78.9639	66.9273	73.1096	4.8213	1.0000
68.0000	79.0276	67.1833	73.4540	4.8181	1.0000
68.1000	79.3407	67.7198	73.9787	4.8150	1.0000
68.2000	79.6538	68.2563	74.5034	4.8118	1.0000
68.3000	79.9668	68.7928	75.0282	4.8086	1.0000
68.4000	80.2799	69.3293	75.5529	4.8055	1.0000
68.5000	80.5930	69.8658	76.0777	4.8023	1.0000
68.6000	80.9061	70.4023	76.6024	4.7991	1.0000
68.7000	81.2191	70.9388	77.1272	4.7959	1.0000
68.8000	81.5685	71.3136	77.5542	4.7928	1.0000
68.9000	81.9179	71.6884	77.9812	4.7896	1.0000
69.0000	82.2672	72.0632	78.4082	4.7920	1.0000
69.1000	82.6166	72.4380	78.8353	4.7943	1.0000
69.2000	82.9659	72.8128	79.2623	4.7967	1.0000
69.3000	83.3153	73.1876	79.6893	4.7990	1.0000
69.4000	83.6646	73.5624	80.1163	4.8014	1.0000
69.5000	84.0140	73.9372	80.5434	4.8038	1.0000
69.6000	83.8553	73.5972	80.1542	4.8061	1.0000
69.7000	83.6402	73.1778	79.6744	4.8085	1.0000
69.8000	83.4251	72.7583	79.1946	4.8108	1.0000
69.9000	83.2100	72.3389	78.7148	4.8132	1.0000
70.0000	82.9949	71.9195	78.2350	4.8156	1.0000
70.1000	82.7798	71.5000	77.7552	4.8179	1.0000
70.2000	82.5648	71.0806	77.2754	4.8203	1.0000
70.3000	82.3497	70.6612	76.7956	4.8227	1.0000
70.4000	82.1346	70.2417	76.3157	4.8250	1.0000
70.5000	81.9195	69.8223	75.8359	4.8274	1.0000
70.6000	81.7044	69.4028	75.3561	4.8297	1.0000
70.7000	81.6553	69.1123	75.0100	4.8321	1.0000
70.8000	81.6708	68.8718	74.7160	4.8345	1.0000
70.9000	81.6863	68.6314	74.4219	4.8368	1.0000
71.0000	81.7017	68.3910	74.1279	4.8392	1.0000
71.1000	81.7172	68.1505	73.8338	4.8415	1.0000
71.2000	81.7327	67.9101	73.5397	4.8439	1.0000
71.3000	81.7482	67.6697	73.2457	4.8463	1.0000
71.4000	81.7637	67.4292	72.9516	4.8486	1.0000
71.5000	81.7791	67.1888	72.6576	4.8510	1.0000
71.6000	81.7946	66.9484	72.3635	4.8533	1.0000
71.7000	81.7293	66.9955	72.3579	4.8557	1.0000
71.8000	81.6639	67.0427	72.3524	4.8581	1.0000
71.9000	81.5985	67.0899	72.3468	4.8604	1.0000
72.0000	81.5332	67.1371	72.3412	4.8628	1.0000
72.1000	81.4678	67.1843	72.3356	4.8651	1.0000
72.2000	81.4024	67.2315	72.3301	4.8675	1.0000
72.3000	81.3371	67.2787	72.3245	4.8699	1.0000
72.4000	81.2717	67.3258	72.3189	4.8722	1.0000
72.5000	81.2025	67.4180	72.4465	4.8746	1.0000
72.6000	81.1319	67.5275	72.6259	4.8769	1.0000
72.7000	81.0612	67.6371	72.8052	4.8793	1.0000
72.8000	80.9906	67.7467	72.9846	4.8817	1.0000
72.9000	80.9199	67.8563	73.1640	4.8840	1.0000
73.0000	80.8493	67.9659	73.3433	4.8864	1.0000
73.1000	80.7786	68.0755	73.5227	4.8888	1.0000
73.2000	80.7968	68.2519	73.7407	4.8911	1.0000
73.3000	81.3605	68.8390	74.1961	4.8935	1.0000
73.4000	81.9242	69.4261	74.6515	4.8958	1.0000
73.5000	82.4879	70.0132	75.1068	4.8982	1.0000
73.6000	83.0516	70.6003	75.5622	4.9006	1.0000
73.7000	83.6154	71.1875	76.0176	4.9029	1.0000
73.8000	84.1791	71.7746	76.4730	4.9057	1.0000
73.9000	84.7428	72.3617	76.9283	4.9088	1.0000
74.0000	85.0896	72.8007	77.2183	4.9118	1.0000
74.1000	85.3602	73.1877	77.4503	4.9149	1.0000
74.2000	85.6308	73.5747	77.6822	4.9179	1.0000
74.3000	85.9015	73.9617	77.9141	4.9210	1.0000
74.4000	86.1721	74.3487	78.1460	4.9240	1.0000
74.5000	86.4427	74.7357	78.3779	4.9271	1.0000
74.6000	86.7133	75.1227	78.6098	4.9301	1.0000
74.7000	86.9839	75.5097	78.8417	4.9332	1.0000
74.8000	86.8475	75.3190	78.4784	4.9362	1.0000
74.9000	86.4616	74.7742	77.7501	4.9393	1.0000
75.0000	86.0756	74.2293	77.0219	4.9423	1.0000
75.1000	85.6897	73.6845	76.2936	4.9454	1.0000
75.2000	85.3038	73.1397	75.5654	4.9484	1.0000
75.3000	84.9179	72.5948	74.8372	4.9515	1.0000
75.4000	84.5320	72.0500	74.1089	4.9545	1.0000
75.5000	84.1460	71.5052	73.3807	4.9576	1.0000
75.6000	83.7601	70.9603	72.6524	4.9606	1.0000
75.7000	83.3742	70.4155	71.9242	4.9637	1.0000
75.8000	82.9883	69.8707	71.1960	4.9667	1.0000
75.9000	82.6860	69.4111	70.6350	4.9698	1.0000
76.0000	82.5325	69.1031	70.3712	4.9728	1.0000
76.1000	82.3790	68.7952	70.1075	4.9759	1.0000
76.2000	82.2255	68.4872	69.8438	4.9789	1.0000
76.3000	82.0720	68.1792	69.5800	4.9820	1.0000
76.4000	81.9185	67.8713	69.3163	4.9850	1.0000
76.5000	81.7650	67.5633	69.0526	4.9881	1.0000
76.6000	81.6115	67.2553	68.7888	4.9911	1.0000
76.7000	81.4580	66.9474	68.5251	4.9942	1.0000
76.8000	81.3045	66.6394	68.2614	4.9972	1.0000
76.9000	81.1705	66.3989	68.0780	5.0003	1.0000
77.0000	81.1560	66.5729	68.3882	5.0033	1.0000
77.1000	81.1415	66.7468	68.6983	5.0064	1.0000
77.2000	81.1270	66.9208	69.0085	5.0094	1.0000
77.3000	81.1124	67.0947	69.3187	5.0125	1.0000
77.4000	81.0979	67.2687	69.6289	5.0155	1.0000
77.5000	81.0834	67.4426	69.9391	5.0186	1.0000
77.6000	81.0689	67.6166	70.2493	5.0216	1.0000
77.7000	81.0544	67.7905	70.5595	5.0247	1.0000
77.8000	80.9669	67.9592	70.9165	5.0277	1.0000
77.9000	80.8794	68.1279	71.2736	5.0308	1.0000
78.0000	80.7919	68.2966	71.6306	5.0338	1.0000
78.1000	80.7044	68.4653	71.9877	5.0369	1.0000
78.2000	80.6169	68.6340	72.3447	5.0399	1.0000
78.3000	80.5294	68.8027	72.7018	5.0430	1.0000
78.4000	80.4419	68.9714	73.0588	5.0460	1.0000
78.5000	80.6027	69.3823	73.5083	5.0491	1.0000
78.6000	81.0795	70.1013	74.0753	5.0521	1.0000
78.7000	81.5562	70.8203	74.6424	5.0552	1.0000
78.8000	82.0330	71.5393	75.2094	5.0582	1.0000
78.9000	82.5098	72.2583	75.7764	5.0613	1.0000
79.0000	82.9865	72.9773	76.3435	5.0643	1.0000
79.1000	83.4633	73.6963	76.9105	5.0674	1.0000
79.2000	83.9401	74.4153	77.4775	5.0671	1.0000
79.3000	84.2513	74.6336	77.8477	5.0626	1.0000
79.4000	84.5441	74.7963	78.1961	5.0581	1.0000
79.5000	84.8369	74.9589	78.5444	5.0537	1.0000
79.6000	85.1297	75.1216	78.8927	5.0492	1.0000
79.7000	85.4225	75.2843	79.2411	5.0447	1.0000
79.8000	85.7153	75.4470	79.5894	5.0402	1.0000
79.9000	86.0081	75.6096	79.9377	5.0357	1.0000
80.0000	86.3009	75.7723	80.2860	5.0312	1.0000
80.1000	86.5181	75.8085	80.4919	5.0268	1.0000
80.2000	86.3906	75.2686	80.0485	5.0223	1.0000
80.3000	86.2631	74.7287	79.6051	5.0178	1.0000
80.4000	86.1356	74.1888	79.1618	5.0133	1.0000
80.5000	86.0080	73.6489	78.7184	5.0088	1.0000
80.6000	85.8805	73.1089	78.2750	5.0043	1.0000
80.7000	85.7530	72.5690	77.8317	4.9999	1.0000
80.8000	85.6255	72.0291	77.3883	4.9954	1.0000
80.9000	85.4980	71.4892	76.9450	4.9909	1.0000
81.0000	85.3705	70.9493	76.5016	4.9864	1.0000
81.1000	85.2430	70.4094	76.0582	4.9819	1.0000
81.2000	85.1295	69.8886	75.6306	4.9775	1.0000
81.3000	85.1418	69.5398	75.3441	4.9730	1.0000
81.4000	85.1540	69.1910	75.0576	4.9685	1.0000
81.5000	85.1663	68.8423	74.7712	4.9640	1.0000
81.6000	85.1786	68.4935	74.4847	4.9595	1.0000
81.7000	85.1909	68.1447	74.1983	4.9550	1.0000
81.8000	85.2032	67.7960	73.9118	4.9506	1.0000
81.9000	85.2154	67.4472	73.6254	4.9461	1.0000
82.0000	85.2277	67.0984	73.3389	4.9416	1.0000
82.1000	85.2400	66.7496	73.0525	4.9371	1.0000
82.2000	85.2523	66.4009	72.7660	4.9326	1.0000
82.3000	84.9574	66.0033	72.4952	4.9282	1.0000
82.4000	84.6563	65.6048	72.2247	4.9237	1.0000
82.5000	84.3552	65.2063	71.9542	4.9192	1.0000
82.6000	84.0541	64.8077	71.6837	4.9147	1.0000
82.7000	83.7530	64.4092	71.4132	4.9102	1.0000
82.8000	83.4519	64.0106	71.1427	4.9057	1.0000
82.9000	83.1508	63.6121	70.8723	4.9013	1.0000
83.0000	82.8496	63.2136	70.6018	4.8968	1.0000
83.1000	82.7439	63.0791	70.5052	4.8923	1.0000
83.2000	83.0174	63.4570	70.7461	4.8878	1.0000
83.3000	83.2909	63.8350	70.9871	4.8833	1.0000
83.4000	83.5643	64.2130	71.2280	4.8788	1.0000
83.5000	83.8378	64.5910	71.4690	4.8744	1.0000
83.6000	84.1113	64.9689	71.7099	4.8699	1.0000
83.7000	84.3848	65.3469	71.9509	4.8654	1.0000
83.8000	84.6583	65.7249	72.1918	4.8609	1.0000
83.9000	84.9428	66.1076	72.4762	4.8564	1.0000
84.0000	85.2712	66.5096	72.9341	4.8520	1.0000
84.1000	85.5995	66.9115	73.3920	4.8492	1.0000
84.2000	85.9279	67.3134	73.8499	4.8502	1.0000
84.3000	86.2563	67.7154	74.3078	4.8511	1.0000
84.4000	86.5847	68.1173	74.7657	4.8521	1.0000
84.5000	86.9131	68.5192	75.2236	4.8530	1.0000
84.6000	87.2415	68.9212	75.6815	4.8540	1.0000
84.7000	87.5699	69.3231	76.1394	4.8549	1.0000
84.8000	87.4245	69.2020	75.9797	4.8559	1.0000
84.9000	87.2265	69.0228	75.7514	4.8569	1.0000
85.0000	87.0284	68.8437	75.5232	4.8578	1.0000
85.1000	86.8303	68.6645	75.2949	4.8588	1.0000
85.2000	86.6323	68.4853	75.0666	4.8597	1.0000
85.3000	86.4342	68.3061	74.8384	4.8607	1.0000
85.4000	86.2362	68.1269	74.6101	4.8616	1.0000
85.5000	86.0381	67.9477	74.3818	4.8626	1.0000
85.6000	85.8400	67.7686	74.1535	4.8636	1.0000
85.7000	85.6420	67.5894	73.9253	4.8645	1.0000
85.8000	85.4439	67.4102	73.6970	4.8655	1.0000
85.9000	85.2950	67.1072	73.3237	4.8664	1.0000
86.0000	85.1583	66.7733	72.9141	4.8674	1.0000
86.1000	85.0216	66.4394	72.5045	4.8683	1.0000
86.2000	84.8849	66.1054	72.0949	4.8693	1.0000
86.3000	84.7483	65.7715	71.6853	4.8702	1.0000
86.4000	84.6116	65.4375	71.2757	4.8712	1.0000
86.5000	84.4749	65.1036	70.8661	4.8722	1.0000
86.6000	84.3382	64.7697	70.4565	4.8731	1.0000
86.7000	84.2016	64.4357	70.0469	4.8741	1.0000
86.8000	84.0649	64.1018	69.6373	4.8750	1.0000
86.9000	83.9386	64.0116	69.4728	4.8760	1.0000
87.0000	83.8218	64.1465	69.5344	4.8769	1.0000
87.1000	83.7051	64.2814	69.5961	4.8779	1.0000
87.2000	83.5884	64.4162	69.6578	4.8788	1.0000
87.3000	83.4716	64.5511	69.7194	4.8798	1.0000
87.4000	83.3549	64.6860	69.7811	4.8808	1.0000
87.5000	83.2382	64.8208	69.8428	4.8817	1.0000
87.6000	83.1214	64.9557	69.9045	4.8827	1.0000
87.7000	83.0047	65.0906	69.9661	4.8836	1.0000
87.8000	82.9426	65.4737	70.2146	4.8846	1.0000
87.9000	82.8925	65.9113	70.5041	4.8855	1.0000
88.0000	82.8424	66.3489	70.7935	4.8865	1.0000
88.1000	82.7923	66.7865	71.0830	4.8874	1.0000
88.2000	82.7422	67.2241	71.3725	4.8884	1.0000
88.3000	82.6921	67.6617	71.6620	4.8894	1.0000
88.4000	82.6420	68.0993	71.9514	4.8903	1.0000
88.5000	82.5919	68.5369	72.2409	4.8913	1.0000
88.6000	83.0094	69.1532	72.9212	4.8922	1.0000
88.7000	83.5159	69.8036	73.6759	4.8932	1.0000
88.8000	84.0225	70.4539	74.4306	4.8941	1.0000
88.9000	84.5291	71.1043	75.1853	4.8951	1.0000
89.0000	85.0357	71.7547	75.9401	4.8961	1.0000
89.1000	85.5422	72.4050	76.6948	4.8976	1.0000
89.2000	86.0488	73.0554	77.4495	4.8999	1.0000
89.3000	86.5554	73.7058	78.2042	4.9021	1.0000
89.4000	86.2909	73.4621	77.9708	4.9044	1.0000
89.5000	86.0264	73.2185	77.7375	4.9067	1.0000
89.6000	85.7619	72.9748	77.5041	4.9089	1.0000
89.7000	85.4974	72.7311	77.2707	4.9112	1.0000
89.8000	85.2328	72.4875	77.0373	4.9134	1.0000
89.9000	84.9683	72.2438	76.8039	4.9157	1.0000
90.0000	84.7038	72.0001	76.5705	4.9179	1.0000
90.1000	84.4393	71.7565	76.3372	4.9202	1.0000
90.2000	84.1748	71.5128	76.1038	4.9225	1.0000
90.3000	83.9103	71.2692	75.8704	4.9247	1.0000
90.4000	83.6458	71.0255	75.6370	4.9270	1.0000
90.5000	83.5684	70.9344	75.4619	4.9292	1.0000
90.6000	83.5638	70.9027	75.3093	4.9315	1.0000
90.7000	83.5592	70.8710	75.1568	4.9337	1.0000
90.8000	83.5545	70.8393	75.0043	4.9360	1.0000
90.9000	83.5499	70.8076	74.8518	4.9382	1.0000
91.0000	83.5453	70.7759	74.6993	4.9405	1.0000
91.1000	83.5407	70.7442	74.5468	4.9428	1.0000
91.2000	83.5361	70.7125	74.3943	4.9450	1.0000
91.3000	83.5314	70.6808	74.2418	4.9473	1.0000
91.4000	83.5268	70.6491	74.0893	4.9495	1.0000
91.5000	83.5923	70.8130	74.1769	4.9518	1.0000
91.6000	83.7225	71.1573	74.4861	4.9540	1.0000
91.7000	83.8527	71.5017	74.7953	4.9563	1.0000
91.8000	83.9829	71.8460	75.1045	4.9586	1.0000
91.9000	84.1131	72.1903	75.4137	4.9608	1.0000
92.0000	84.2433	72.5347	75.7229	4.9631	1.0000
92.1000	84.3735	72.8790	76.0322	4.9653	1.0000
92.2000	84.5037	73.2234	76.3414	4.9676	1.0000
92.3000	84.6339	73.5677	76.6506	4.9698	1.0000
92.4000	84.3752	73.4844	76.6989	4.9721	1.0000
92.5000	84.0634	73.3428	76.7115	4.9743	1.0000
92.6000	83.7517	73.2012	76.7242	4.9766	1.0000
92.7000	83.4399	73.0595	76.7369	4.9789	1.0000
92.8000	83.1282	72.9179	76.7495	4.9811	1.0000
92.9000	82.8164	72.7763	76.7622	4.9834	1.0000
93.0000	82.5047	72.6346	76.7749	4.9856	1.0000
93.1000	82.6203	72.7220	77.1293	4.9879	1.0000
93.2000	83.1634	73.0382	77.8254	4.9901	1.0000
93.3000	83.7065	73.3544	78.5215	4.9924	1.0000
93.4000	84.2496	73.6707	79.2176	4.9947	1.0000
93.5000	84.7927	73.9869	79.9137	4.9969	1.0000
93.6000	85.3358	74.3032	80.6098	4.9992	1.0000
93.7000	85.8789	74.6194	81.3059	5.0014	1.0000
93.8000	86.3953	74.9666	81.9540	5.0037	1.0000
93.9000	86.7721	75.4761	82.3496	5.0059	1.0000
94.0000	87.1489	75.9856	82.7452	5.0082	1.0000
94.1000	87.5257	76.4951	83.1409	5.0104	1.0000
94.2000	87.9025	77.0046	83.5365	5.0094	1.0000
94.3000	88.2793	77.5141	83.9321	5.0080	1.0000
94.4000	88.6560	78.0236	84.3278	5.0067	1.0000
94.5000	89.0328	78.5331	84.7234	5.0053	1.0000
94.6000	89.3995	78.9563	85.1070	5.0040	1.0000
94.7000	89.7255	79.0347	85.4426	5.0026	1.0000
94.8000	90.0516	79.1131	85.7782	5.0013	1.0000
94.9000	90.3777	79.1914	86.1137	4.9999	1.0000
95.0000	90.7037	79.2698	86.4493	4.9986	1.0000
95.1000	91.0298	79.3481	86.7849	4.9972	1.0000
95.2000	91.3559	79.4265	87.1205	4.9959	1.0000
95.3000	91.6819	79.5048	87.4561	4.9945	1.0000
95.4000	92.1078	79.5129	87.5801	4.9932	1.0000
95.5000	92.5378	79.5179	87.6953	4.9918	1.0000
95.6000	92.9678	79.5230	87.8106	4.9905	1.0000
95.7000	93.3977	79.5281	87.9258	4.9891	1.0000
95.8000	93.8277	79.5332	88.0410	4.9878	1.0000
95.9000	94.2577	79.5382	88.1562	4.9864	1.0000
96.0000	94.6877	79.5433	88.2714	4.9851	1.0000
96.1000	94.4221	78.8906	87.4697	4.9837	1.0000
96.2000	94.0792	78.1647	86.5661	4.9824	1.0000
96.3000	93.7362	77.4388	85.6624	4.9810	1.0000
96.4000	93.3933	76.7130	84.7588	4.9797	1.0000
96.5000	93.0504	75.9871	83.8552	4.9783	1.0000
96.6000	92.7074	75.2612	82.9516	4.9770	1.0000
96.7000	92.3645	74.5354	82.0480	4.9756	1.0000
96.8000	92.0216	73.8095	81.1443	4.9743	1.0000
96.9000	91.6123	73.0307	80.2046	4.9729	1.0000
97.0000	91.0948	72.1655	79.2060	4.9716	1.0000
97.1000	90.5773	71.3003	78.2073	4.9702	1.0000
97.2000	90.0597	70.4351	77.2087	4.9689	1.0000
97.3000	89.5422	69.5699	76.2101	4.9675	1.0000
97.4000	89.0247	68.7047	75.2114	4.9662	1.0000
97.5000	88.5072	67.8394	74.2128	4.9648	1.0000
97.6000	87.9897	66.9742	73.2142	4.9635	1.0000
97.7000	87.5615	66.2610	72.3544	4.9621	1.0000
97.8000	87.6819	66.4814	72.3478	4.9608	1.0000
97.9000	87.8023	66.7018	72.3412	4.9594	1.0000
98.0000	87.9227	66.9222	72.3346	4.9581	1.0000
98.1000	88.0431	67.1426	72.3280	4.9567	1.0000
98.2000	88.1635	67.3630	72.3214	4.9554	1.0000
98.3000	88.2839	67.5834	72.3148	4.9540	1.0000
98.4000	88.4043	67.8038	72.3082	4.9527	1.0000
98.5000	88.5247	68.0241	72.3016	4.9513	1.0000
98.6000	88.3662	68.0811	72.2538	4.9500	1.0000
98.7000	88.1197	68.0865	72.1929	4.9486	1.0000
98.8000	87.8732	68.0919	72.1320	4.9473	1.0000
98.9000	87.6267	68.0973	72.0711	4.9459	1.0000
99.0000	87.3802	68.1027	72.0102	4.9446	1.0000
99.1000	87.1337	68.1080	71.9493	4.9432	1.0000
99.2000	86.8872	68.1134	71.8884	4.9419	1.0000
99.3000	86.6407	68.1188	71.8275	4.9405	1.0000
99.4000	86.3942	68.1242	71.7666	4.9392	1.0000
99.5000	86.1477	68.1296	71.7058	4.9378	1.0000
99.6000	85.9076	68.0784	71.5949	4.9365	1.0000
99.7000	85.6798	67.9174	71.3870	4.9351	1.0000
99.8000	85.4520	67.7563	71.1792	4.9338	1.0000
99.9000	85.2243	67.5953	70.9713	4.9324	1.0000
100.0000	84.9965	67.4343	70.7635	4.9311	1.0000
100.1000	84.7688	67.2733	70.5556	4.9297	1.0000
100.2000	84.5410	67.1123	70.3477	4.9284	1.0000
100.3000	84.3133	66.9513	70.1399	4.9270	1.0000
100.4000	84.0855	66.7903	69.9320	4.9257	1.0000
100.5000	83.8577	66.6292	69.7242	4.9243	1.0000
100.6000	83.6300	66.4682	69.5163	4.9230	1.0000
100.7000	83.2310	66.5863	69.7283	4.9216	1.0000
100.8000	82.8320	66.7043	69.9403	4.9203	1.0000
100.9000	82.4329	66.8223	70.1523	4.9189	1.0000
101.0000	82.0339	66.9404	70.3643	4.9176	1.0000
101.1000	81.6349	67.0584	70.5763	4.9162	1.0000
101.2000	81.2359	67.1764	70.7883	4.9149	1.0000
101.3000	80.8369	67.2945	71.0003	4.9135	1.0000
101.4000	80.4827	67.4469	71.2434	4.9122	1.0000
101.5000	80.4572	67.8512	71.7147	4.9108	1.0000
101.6000	80.4317	68.2555	72.1861	4.9095	1.0000
101.7000	80.4062	68.6598	72.6575	4.9081	1.0000
101.8000	80.3807	69.0642	73.1288	4.9068	1.0000
101.9000	80.3552	69.4685	73.6002	4.9054	1.0000
102.0000	80.3296	69.8728	74.0716	4.9041	1.0000
102.1000	80.3041	70.2771	74.5429	4.9027	1.0000
102.2000	80.7407	70.9966	75.4954	4.9014	1.0000
102.3000	81.2654	71.7761	76.5394	4.9000	1.0000
102.4000	81.7900	72.5556	77.5835	4.8987	1.0000
102.5000	82.3146	73.3351	78.6275	4.8973	1.0000
102.6000	82.8392	74.1146	79.6716	4.8960	1.0000
102.7000	83.3638	74.8941	80.7157	4.8953	1.0000
102.8000	83.8885	75.6736	81.7597	4.8954	1.0000
102.9000	84.1728	76.1152	82.3047	4.8955	1.0000
103.0000	84.1750	76.1601	82.2637	4.8956	1.0000
103.1000	84.1772	76.2050	82.2228	4.8957	1.0000
103.2000	84.1794	76.2498	82.1818	4.8958	1.0000
103.3000	84.1817	76.2947	82.1409	4.8959	1.0000
103.4000	84.1839	76.3396	82.1000	4.8960	1.0000
103.5000	84.1861	76.3845	82.0590	4.8961	1.0000
103.6000	84.1883	76.4294	82.0181	4.8963	1.0000
103.7000	84.1906	76.4742	81.9771	4.8964	1.0000
103.8000	84.0652	76.2401	81.6751	4.8965	1.0000
103.9000	83.8474	75.8039	81.1840	4.8966	1.0000
104.0000	83.6297	75.3677	80.6928	4.8967	1.0000
104.1000	83.4119	74.9314	80.2017	4.8968	1.0000
104.2000	83.1942	74.4952	79.7106	4.8969	1.0000
104.3000	82.9764	74.0590	79.2195	4.8970	1.0000
104.4000	82.7586	73.6228	78.7284	4.8971	1.0000
104.5000	82.5409	73.1866	78.2372	4.8972	1.0000
104.6000	82.3231	72.7504	77.7461	4.8974	1.0000
104.7000	82.1054	72.3142	77.2550	4.8975	1.0000
104.8000	81.9546	72.0866	77.1092	4.8976	1.0000
104.9000	81.8353	71.9573	77.1258	4.8977	1.0000
105.0000	81.7160	71.8280	77.1425	4.8978	1.0000
105.1000	81.5967	71.6987	77.1592	4.8979	1.0000
105.2000	81.4774	71.5694	77.1759	4.8980	1.0000
105.3000	81.3581	71.4400	77.1925	4.8981	1.0000
105.4000	81.2388	71.3107	77.2092	4.8982	1.0000
105.5000	81.1195	71.1814	77.2259	4.8983	1.0000
105.6000	81.1618	71.3858	77.3936	4.8985	1.0000
105.7000	81.2396	71.6634	77.5945	4.8986	1.0000
105.8000	81.3173	71.9410	77.7954	4.8987	1.0000
105.9000	81.3951	72.2186	77.9964	4.8988	1.0000
106.0000	81.4729	72.4962	78.1973	4.8989	1.0000
106.1000	81.5507	72.7739	78.3982	4.8990	1.0000
106.2000	81.6284	73.0515	78.5991	4.8991	1.0000
106.3000	81.8044	73.3582	78.9379	4.8992	1.0000
106.4000	82.1888	73.7266	79.5695	4.8993	1.0000
106.5000	82.5733	74.0951	80.2012	4.8995	1.0000
106.6000	82.9578	74.4635	80.8329	4.9007	1.0000
106.7000	83.3423	74.8320	81.4646	4.9035	1.0000
106.8000	83.7267	75.2005	82.0963	4.9064	1.0000
106.9000	84.1112	75.5689	82.7280	4.9092	1.0000
107.0000	84.4867	75.9496	83.3375	4.9121	1.0000
107.1000	84.7214	76.5209	83.6004	4.9150	1.0000
107.2000	84.9561	77.0922	83.8634	4.9178	1.0000
107.3000	85.1908	77.6636	84.1263	4.9207	1.0000
107.4000	85.4255	78.2349	84.3892	4.9236	1.0000
107.5000	85.6603	78.8062	84.6521	4.9264	1.0000
107.6000	85.8950	79.3776	84.9150	4.9293	1.0000
107.7000	86.1297	79.9489	85.1780	4.9321	1.0000
107.8000	86.2162	80.1509	85.1309	4.9350	1.0000
107.9000	85.9568	79.4912	84.3605	4.9379	1.0000
108.0000	85.6975	78.8315	83.5901	4.9407	1.0000
108.1000	85.4381	78.1718	82.8197	4.9436	1.0000
108.2000	85.1787	77.5121	82.0493	4.9465	1.0000
108.3000	84.9194	76.8523	81.2789	4.9493	1.0000
108.4000	84.6600	76.1926	80.5085	4.9522	1.0000
108.5000	84.4006	75.5329	79.7381	4.9550	1.0000
108.6000	84.1413	74.8732	78.9676	4.9579	1.0000
108.7000	83.8819	74.2135	78.1972	4.9608	1.0000
108.8000	83.6226	73.5538	77.4268	4.9636	1.0000
108.9000	83.4886	73.0966	76.8301	4.9665	1.0000
109.0000	83.4454	72.7859	76.3592	4.9693	1.0000
109.1000	83.4022	72.4753	75.8883	4.9722	1.0000
109.2000	83.3589	72.1647	75.4173	4.9751	1.0000
109.3000	83.3157	71.8541	74.9464	4.9779	1.0000
109.4000	83.2725	71.5435	74.4755	4.9808	1.0000
109.5000	83.2293	71.2329	74.0045	4.9837	1.0000
109.6000	83.1861	70.9223	73.5336	4.9865	1.0000
109.7000	83.1429	70.6117	73.0627	4.9894	1.0000
109.8000	83.0997	70.3011	72.5917	4.9922	1.0000
109.9000	83.0762	70.2330	72.4867	4.9951	1.0000
110.0000	83.0682	70.3554	72.6691	4.9980	1.0000
110.1000	83.0602	70.4778	72.8515	5.0008	1.0000
110.2000	83.0522	70.6003	73.0339	5.0037	1.0000
110.3000	83.0442	70.7227	73.2163	5.0066	1.0000
110.4000	83.0362	70.8451	73.3988	5.0094	1.0000
110.5000	83.0282	70.9676	73.5812	5.0123	1.0000
110.6000	83.0202	71.0900	73.7636	5.0151	1.0000
110.7000	82.8892	71.1568	73.8113	5.0180	1.0000
110.8000	82.6615	71.1800	73.7531	5.0209	1.0000
110.9000	82.4338	71.2032	73.6950	5.0237	1.0000
111.0000	82.2061	71.2264	73.6368	5.0266	1.0000
111.1000	81.9784	71.2496	73.5787	5.0295	1.0000
111.2000	81.7508	71.2728	73.5205	5.0323	1.0000
111.3000	81.5231	71.2960	73.4624	5.0352	1.0000
111.4000	81.4807	71.4184	73.6061	5.0380	1.0000
111.5000	82.0253	71.8548	74.3888	5.0409	1.0000
111.6000	82.5699	72.2913	75.1716	5.0438	1.0000
111.7000	83.1144	72.7277	75.9544	5.0466	1.0000
111.8000	83.6590	73.1641	76.7372	5.0495	1.0000
111.9000	84.2036	73.6005	77.5199	5.0523	1.0000
112.0000	84.7481	74.0369	78.3027	5.0552	1.0000
112.1000	85.2927	74.4733	79.0855	5.0520	1.0000
112.2000	85.6684	75.0495	79.5035	5.0470	1.0000
112.3000	86.0440	75.6256	79.9215	5.0419	1.0000
112.4000	86.4197	76.2018	80.3396	5.0369	1.0000
112.5000	86.7954	76.7779	80.7576	5.0318	1.0000
112.6000	87.1710	77.3541	81.1756	5.0267	1.0000
112.7000	87.5467	77.9302	81.5937	5.0217	1.0000
112.8000	87.9224	78.5064	82.0117	5.0166	1.0000
112.9000	88.1390	78.8463	82.2236	5.0115	1.0000
113.0000	87.7198	78.2411	81.6109	5.0065	1.0000
113.1000	87.3005	77.6359	80.9981	5.0014	1.0000
113.2000	86.8812	77.0307	80.3854	4.9964	1.0000
113.3000	86.4619	76.4255	79.7727	4.9913	1.0000
113.4000	86.0426	75.8202	79.1599	4.9862	1.0000
113.5000	85.6234	75.2150	78.5472	4.9812	1.0000
113.6000	85.2041	74.6098	77.9345	4.9761	1.0000
113.7000	84.7848	74.0046	77.3218	4.9710	1.0000
113.8000	84.3655	73.3994	76.7090	4.9660	1.0000
113.9000	83.9462	72.7942	76.0963	4.9609	1.0000
114.0000	83.9335	72.5020	75.8138	4.9559	1.0000
114.1000	83.9560	72.2371	75.5599	4.9508	1.0000
114.2000	83.9786	71.9721	75.3061	4.9457	1.0000
114.3000	84.0012	71.7071	75.0522	4.9407	1.0000
114.4000	84.0237	71.4421	74.7984	4.9356	1.0000
114.5000	84.0463	71.1772	74.5445	4.9305	1.0000
114.6000	84.0689	70.9122	74.2907	4.9255	1.0000
114.7000	84.0914	70.6472	74.0368	4.9204	1.0000
114.8000	83.7754	70.3298	73.6979	4.9154	1.0000
114.9000	83.4133	70.0053	73.3473	4.9103	1.0000
115.0000	83.0511	69.6807	72.9967	4.9052	1.0000
115.1000	82.6889	69.3561	72.6461	4.9002	1.0000
115.2000	82.3268	69.0316	72.2955	4.8951	1.0000
115.3000	81.9646	68.7070	71.9449	4.8900	1.0000
115.4000	81.6024	68.3825	71.5943	4.8850	1.0000
115.5000	81.6396	68.4858	71.7607	4.8799	1.0000
115.6000	82.1456	69.0916	72.5341	4.8748	1.0000
115.7000	82.6515	69.6973	73.3075	4.8698	1.0000
115.8000	83.1575	70.3030	74.0808	4.8647	1.0000
115.9000	83.6635	70.9088	74.8542	4.8597	1.0000
116.0000	84.1694	71.5145	75.6276	4.8546	1.0000
116.1000	84.6754	72.1202	76.4010	4.8495	1.0000
116.2000	85.1559	72.6850	77.1000	4.8487	1.0000
116.3000	85.5462	73.1047	77.5352	4.8499	1.0000
116.4000	85.9365	73.5243	77.9704	4.8511	1.0000
116.5000	86.3268	73.9439	78.4056	4.8523	1.0000
116.6000	86.7171	74.3635	78.8408	4.8535	1.0000
116.7000	87.1074	74.7832	79.2760	4.8547	1.0000
116.8000	87.4977	75.2028	79.7113	4.8560	1.0000
116.9000	87.8880	75.6224	80.1465	4.8572	1.0000
117.0000	87.8328	75.4376	79.9258	4.8584	1.0000
117.1000	87.4550	74.8152	79.2301	4.8596	1.0000
117.2000	87.0771	74.1927	78.5344	4.8608	1.0000
117.3000	86.6993	73.5703	77.8387	4.8620	1.0000
117.4000	86.3215	72.9478	77.1430	4.8632	1.0000
117.5000	85.9436	72.3253	76.4473	4.8644	1.0000
117.6000	85.5658	71.7029	75.7516	4.8656	1.0000
117.7000	85.1880	71.0804	75.0559	4.8668	1.0000
117.8000	84.8101	70.4579	74.3602	4.8680	1.0000
117.9000	84.4323	69.8355	73.6646	4.8692	1.0000
118.0000	84.0545	69.2130	72.9689	4.8704	1.0000
118.1000	83.8078	68.7285	72.4135	4.8716	1.0000
118.2000	83.7152	68.4059	72.0230	4.8728	1.0000
118.3000	83.6226	68.0833	71.6324	4.8740	1.0000
118.4000	83.5300	67.7607	71.2418	4.8752	1.0000
118.5000	83.4373	67.4380	70.8513	4.8764	1.0000
118.6000	83.3447	67.1154	70.4607	4.8776	1.0000
118.7000	83.2521	66.7928	70.0701	4.8788	1.0000
118.8000	83.1595	66.4702	69.6795	4.8800	1.0000
118.9000	83.0669	66.1476	69.2890	4.8812	1.0000
119.0000	82.9742	65.8250	68.8984	4.8824	1.0000
119.1000	82.7477	65.7270	68.8692	4.8836	1.0000
119.2000	82.4581	65.7347	69.0099	4.8848	1.0000
119.3000	82.1685	65.7424	69.1507	4.8860	1.0000
119.4000	81.8788	65.7501	69.2915	4.8872	1.0000
119.5000	81.5892	65.7577	69.4323	4.8884	1.0000
119.6000	81.2996	65.7654	69.5731	4.8896	1.0000
119.7000	81.0100	65.7731	69.7138	4.8908	1.0000
119.8000	80.7204	65.7808	69.8546	4.8920	1.0000
119.9000	81.0167	66.3324	70.5707	4.8932	1.0000
120.0000	81.3928	66.9581	71.3652	4.8944	1.0000
120.1000	81.7689	67.5839	72.1598	4.8957	1.0000
120.2000	82.1451	68.2096	72.9543	4.8969	1.0000
120.3000	82.5212	68.8353	73.7489	4.8981	1.0000
120.4000	82.8974	69.4611	74.5434	4.8993	1.0000
120.5000	83.2735	70.0868	75.3379	4.9005	1.0000
120.6000	83.7877	70.7255	76.0570	4.9017	1.0000
120.7000	84.3455	71.3683	76.7522	4.9029	1.0000
120.8000	84.9032	72.0111	77.4475	4.9041	1.0000
120.9000	85.4610	72.6538	78.1427	4.9053	1.0000
121.0000	86.0188	73.2966	78.8379	4.9058	1.0000
121.1000	86.5766	73.9394	79.5332	4.9030	1.0000
121.2000	87.1343	74.5822	80.2284	4.9001	1.0000
121.3000	87.4745	74.7746	80.5196	4.8973	1.0000
121.4000	87.5971	74.5165	80.4067	4.8944	1.0000
121.5000	87.7196	74.2585	80.2939	4.8916	1.0000
121.6000	87.8422	74.0005	80.1811	4.8887	1.0000
121.7000	87.9647	73.7425	80.0682	4.8858	1.0000
121.8000	88.0873	73.4845	79.9554	4.8830	1.0000
121.9000	88.2099	73.2264	79.8426	4.8801	1.0000
122.0000	88.3324	72.9684	79.7297	4.8773	1.0000
122.1000	88.4217	72.6823	79.5703	4.8744	1.0000
122.2000	88.1278	72.0733	78.8744	4.8716	1.0000
122.3000	87.8340	71.4643	78.1785	4.8687	1.0000
122.4000	87.5401	70.8553	77.4827	4.8659	1.0000
122.5000	87.2463	70.2463	76.7868	4.8630	1.0000
122.6000	86.9524	69.6373	76.0910	4.8602	1.0000
122.7000	86.6586	69.0283	75.3951	4.8573	1.0000
122.8000	86.3647	68.4194	74.6992	4.8544	1.0000
122.9000	86.0709	67.8104	74.0034	4.8516	1.0000
123.0000	85.7770	67.2014	73.3075	4.8487	1.0000
123.1000	85.6047	66.6684	72.7597	4.8459	1.0000
123.2000	85.6308	66.2594	72.4536	4.8430	1.0000
123.3000	85.6568	65.8504	72.1474	4.8402	1.0000
123.4000	85.6828	65.4415	71.8413	4.8373	1.0000
123.5000	85.7089	65.0325	71.5351	4.8345	1.0000
123.6000	85.7349	64.6236	71.2290	4.8316	1.0000
123.7000	85.7609	64.2146	70.9228	4.8287	1.0000
123.8000	85.7870	63.8056	70.6167	4.8259	1.0000
123.9000	85.7698	63.5674	70.4299	4.8230	1.0000
124.0000	85.7020	63.5297	70.3832	4.8202	1.0000
124.1000	85.6341	63.4919	70.3366	4.8173	1.0000
124.2000	85.5663	63.4542	70.2899	4.8145	1.0000
124.3000	85.4984	63.4165	70.2433	4.8116	1.0000
124.4000	85.4306	63.3787	70.1966	4.8088	1.0000
124.5000	85.3627	63.3410	70.1499	4.8059	1.0000
124.6000	85.3107	63.3222	70.1162	4.8031	1.0000
124.7000	85.6391	63.7585	70.3923	4.8002	1.0000
124.8000	85.9674	64.1948	70.6683	4.7973	1.0000
124.9000	86.2957	64.6311	70.9444	4.7945	1.0000
125.0000	86.6240	65.0674	71.2205	4.7916	1.0000
125.1000	86.9524	65.5037	71.4966	4.7897	1.0000
125.2000	87.2807	65.9400	71.7726	4.7898	1.0000
125.3000	87.6090	66.3764	72.0487	4.7899	1.0000
125.4000	87.7622	66.6859	72.2726	4.7900	1.0000
125.5000	87.8168	66.9242	72.4672	4.7901	1.0000
125.6000	87.8715	67.1624	72.6618	4.7902	1.0000
125.7000	87.9261	67.4007	72.8564	4.7903	1.0000
125.8000	87.9807	67.6390	73.0510	4.7904	1.0000
125.9000	88.0353	67.8772	73.2456	4.7905	1.0000
126.0000	88.0900	68.1155	73.4402	4.7906	1.0000
126.1000	88.1446	68.3537	73.6348	4.7907	1.0000
126.2000	88.2804	68.4508	73.8067	4.7908	1.0000
126.3000	88.4161	68.5478	73.9786	4.7909	1.0000
126.4000	88.5519	68.6448	74.1505	4.7910	1.0000
126.5000	88.6876	68.7419	74.3224	4.7911	1.0000
126.6000	88.8234	68.8389	74.4943	4.7912	1.0000
126.7000	88.9591	68.9359	74.6662	4.7913	1.0000
126.8000	89.0949	69.0329	74.8381	4.7914	1.0000
126.9000	89.1075	69.0015	74.8258	4.7915	1.0000
127.0000	88.7305	68.5630	74.2303	4.7916	1.0000
127.1000	88.3534	68.1246	73.6347	4.7917	1.0000
127.2000	87.9763	67.6862	73.0392	4.7918	1.0000
127.3000	87.5993	67.2477	72.4437	4.7918	1.0000
127.4000	87.2222	66.8093	71.8482	4.7919	1.0000
127.5000	86.8451	66.3709	71.2527	4.7920	1.0000
127.6000	86.4680	65.9324	70.6571	4.7921	1.0000
127.7000	86.0910	65.4940	70.0616	4.7922	1.0000
127.8000	85.7139	65.0556	69.4661	4.7923	1.0000
127.9000	85.3368	64.6171	68.8706	4.7924	1.0000
128.0000	85.1603	64.4544	68.7485	4.7925	1.0000
128.1000	85.0340	64.3606	68.7448	4.7926	1.0000
128.2000	84.9076	64.2668	68.7411	4.7927	1.0000
128.3000	84.7813	64.1729	68.7373	4.7928	1.0000
128.4000	84.6549	64.0791	68.7336	4.7929	1.0000
128.5000	84.5285	63.9853	68.7299	4.7930	1.0000
128.6000	84.4022	63.8915	68.7262	4.7931	1.0000
128.7000	84.2758	63.7977	68.7225	4.7932	1.0000
128.8000	84.1495	63.7039	68.7188	4.7933	1.0000
128.9000	84.1451	64.0322	69.0272	4.7934	1.0000
129.0000	84.1639	64.4409	69.3951	4.7935	1.0000
129.1000	84.1827	64.8496	69.7629	4.7936	1.0000
129.2000	84.2015	65.2583	70.1308	4.7937	1.0000
129.3000	84.2203	65.6670	70.4987	4.7938	1.0000
129.4000	84.2391	66.0758	70.8665	4.7939	1.0000
129.5000	84.2579	66.4845	71.2344	4.7940	1.0000
129.6000	84.2768	66.8932	71.6023	4.7941	1.0000
129.7000	84.1180	66.9324	71.8226	4.7942	1.0000
129.8000	83.9031	66.8549	71.9962	4.7943	1.0000
129.9000	83.6882	66.7774	72.1699	4.7944	1.0000
130.0000	83.4733	66.6999	72.3436	4.7945	1.0000
130.1000	83.2584	66.6224	72.5172	4.7945	1.0000
130.2000	83.0435	66.5449	72.6909	4.7946	1.0000
130.3000	82.8286	66.4674	72.8646	4.7947	1.0000
130.4000	82.8321	66.7085	73.1135	4.7948	1.0000
130.5000	83.0918	67.3235	73.4508	4.7949	1.0000
130.6000	83.3515	67.9385	73.7882	4.7950	1.0000
130.7000	83.6112	68.5535	74.1255	4.7951	1.0000
130.8000	83.8709	69.1684	74.4628	4.7952	1.0000
130.9000	84.1306	69.7834	74.8002	4.7953	1.0000
131.0000	84.3903	70.3984	75.1375	4.7954	1.0000
131.1000	84.6963	70.9904	75.5731	4.7955	1.0000
131.2000	85.1101	71.5289	76.2379	4.7956	1.0000
131.3000	85.5240	72.0673	76.9028	4.7957	1.0000
131.4000	85.9379	72.6057	77.5676	4.7958	1.0000
131.5000	86.3517	73.1442	78.2325	4.7959	1.0000
131.6000	86.7656	73.6826	78.8973	4.7960	1.0000
131.7000	87.1795	74.2210	79.5622	4.7961	1.0000
131.8000	87.5933	74.7594	80.2271	4.7916	1.0000
131.9000	87.6367	74.7310	80.1637	4.7872	1.0000
132.0000	87.5499	74.5034	79.8446	4.7827	1.0000
132.1000	87.4631	74.2758	79.5254	4.7782	1.0000
132.2000	87.3763	74.0482	79.2062	4.7738	1.0000
132.3000	87.2895	73.8206	78.8870	4.7693	1.0000
132.4000	87.2027	73.5929	78.5679	4.7649	1.0000
132.5000	87.1159	73.3653	78.2487	4.7604	1.0000
132.6000	87.0291	73.1377	77.9295	4.7559	1.0000
132.7000	86.9423	72.9101	77.6104	4.7515	1.0000
132.8000	86.8535	72.2856	77.0841	4.7470	1.0000
132.9000	86.7640	71.5357	76.4924	4.7426	1.0000
133.0000	86.6745	70.7858	75.9007	4.7381	1.0000
133.1000	86.5851	70.0359	75.3090	4.7336	1.0000
133.2000	86.4956	69.2860	74.7173	4.7292	1.0000
133.3000	86.4061	68.5361	74.1256	4.7247	1.0000
133.4000	86.3166	67.7863	73.5340	4.7203	1.0000
133.5000	86.2272	67.0364	72.9423	4.7158	1.0000
133.6000	86.1377	66.2865	72.3506	4.7113	1.0000
133.7000	86.0251	65.7760	71.8425	4.7069	1.0000
133.8000	85.9051	65.3411	71.3608	4.7024	1.0000
133.9000	85.7852	64.9063	70.8790	4.6980	1.0000
134.0000	85.6653	64.4714	70.3973	4.6935	1.0000
134.1000	85.5453	64.0365	69.9156	4.6890	1.0000
134.2000	85.4254	63.6016	69.4339	4.6846	1.0000
134.3000	85.3055	63.1668	68.9522	4.6801	1.0000
134.4000	85.1855	62.7319	68.4705	4.6757	1.0000
134.5000	84.9680	62.3687	68.0729	4.6712	1.0000
134.6000	84.7465	62.0085	67.6789	4.6667	1.0000
134.7000	84.5249	61.6483	67.2848	4.6623	1.0000
134.8000	84.3034	61.2880	66.8908	4.6578	1.0000
134.9000	84.0818	60.9278	66.4967	4.6534	1.0000
135.0000	83.8603	60.5676	66.1027	4.6489	1.0000
135.1000	83.6387	60.2074	65.7087	4.6444	1.0000
135.2000	83.5507	59.9937	65.5037	4.6400	1.0000
135.3000	83.8061	60.1569	65.7849	4.6355	1.0000
135.4000	84.0614	60.3201	66.0660	4.6311	1.0000
135.5000	84.3168	60.4833	66.3472	4.6266	1.0000
135.6000	84.5721	60.6466	66.6284	4.6221	1.0000
135.7000	84.8275	60.8098	66.9096	4.6219	1.0000
135.8000	85.0829	60.9730	67.1908	4.6246	1.0000
135.9000	85.3382	61.1362	67.4719	4.6272	1.0000
136.0000	85.4500	61.1891	67.5928	4.6299	1.0000
136.1000	85.1072	60.8928	67.2059	4.6325	1.0000
136.2000	84.7644	60.5965	66.8191	4.6351	1.0000
136.3000	84.4216	60.3003	66.4322	4.6378	1.0000
136.4000	84.0788	60.0040	66.0453	4.6404	1.0000
136.5000	83.7360	59.7077	65.6585	4.6431	1.0000
136.6000	83.3932	59.4114	65.2716	4.6457	1.0000
136.7000	83.0504	59.1152	64.8847	4.6483	1.0000
136.8000	82.7076	58.8189	64.4979	4.6510	1.0000
136.9000	82.3648	58.5226	64.1110	4.6536	1.0000
137.0000	82.0220	58.2263	63.7241	4.6563	1.0000
137.1000	81.8061	58.1037	63.4845	4.6589	1.0000
137.2000	81.6615	58.0789	63.3276	4.6615	1.0000
137.3000	81.5169	58.0540	63.1707	4.6642	1.0000
137.4000	81.3723	58.0292	63.0138	4.6668	1.0000
137.5000	81.2277	58.0043	62.8569	4.6695	1.0000
137.6000	81.0831	57.9795	62.7000	4.6721	1.0000
137.7000	80.9385	57.9546	62.5431	4.6747	1.0000
137.8000	80.7939	57.9297	62.3862	4.6774	1.0000
137.9000	80.6493	57.9049	62.2293	4.6800	1.0000
138.0000	80.5158	57.9459	62.2318	4.6827	1.0000
138.1000	80.4218	58.2206	62.7994	4.6853	1.0000
138.2000	80.3278	58.4952	63.3669	4.6880	1.0000
138.3000	80.2338	58.7699	63.9345	4.6906	1.0000
138.4000	80.1398	59.0445	64.5020	4.6932	1.0000
138.5000	80.0458	59.3192	65.0696	4.6959	1.0000
138.6000	79.9518	59.5939	65.6371	4.6985	1.0000
138.7000	79.8578	59.8685	66.2047	4.7012	1.0000
138.8000	79.7461	60.0842	66.5826	4.7038	1.0000
138.9000	79.6226	60.2606	66.8341	4.7064	1.0000
139.0000	79.4991	60.4369	67.0857	4.7091	1.0000
139.1000	79.3755	60.6133	67.3372	4.7117	1.0000
139.2000	79.2520	60.7897	67.5888	4.7144	1.0000
139.3000	79.1285	60.9661	67.8403	4.7170	1.0000
139.4000	79.0050	61.1424	68.0919	4.7196	1.0000
139.5000	79.0035	61.4455	68.4193	4.7223	1.0000
139.6000	79.3492	62.1093	68.9630	4.7249	1.0000
139.7000	79.6949	62.7731	69.5067	4.7276	1.0000
139.8000	80.0406	63.4369	70.0504	4.7302	1.0000
139.9000	80.3863	64.1007	70.5941	4.7328	1.0000
140.0000	80.7320	64.7645	71.1378	4.7355	1.0000
140.1000	81.0777	65.4282	71.6815	4.7381	1.0000
140.2000	81.4235	66.0920	72.2252	4.7408	1.0000
140.3000	81.3845	66.1869	72.2183	4.7423	1.0000
140.4000	81.2494	66.1396	72.0737	4.7428	1.0000
140.5000	81.1142	66.0922	71.9292	4.7432	1.0000
140.6000	80.9791	66.0449	71.7846	4.7436	1.0000
140.7000	80.8440	65.9975	71.6400	4.7441	1.0000
140.8000	80.7088	65.9502	71.4955	4.7445	1.0000
140.9000	80.5737	65.9029	71.3509	4.7449	1.0000
141.0000	80.4386	65.8555	71.2064	4.7453	1.0000
141.1000	80.3034	65.8082	71.0618	4.7458	1.0000
141.2000	80.1568	65.7157	70.8748	4.7462	1.0000
141.3000	79.9914	65.5498	70.6184	4.7466	1.0000
141.4000	79.8259	65.3838	70.3620	4.7470	1.0000
141.5000	79.6605	65.2178	70.1056	4.7475	1.0000
141.6000	79.4951	65.0519	69.8492	4.7479	1.0000
141.7000	79.3297	64.8859	69.5929	4.7483	1.0000
141.8000	79.1642	64.7199	69.3365	4.7487	1.0000
141.9000	78.9988	64.5539	69.0801	4.7492	1.0000
142.0000	78.8334	64.3880	68.8237	4.7496	1.0000
142.1000	78.6680	64.2220	68.5674	4.7500	1.0000
142.2000	78.5361	64.1356	68.4167	4.7504	1.0000
142.3000	78.5386	64.3676	68.6888	4.7509	1.0000
142.4000	78.5411	64.5997	68.9610	4.7513	1.0000
142.5000	78.5436	64.8317	69.2331	4.7517	1.0000
142.6000	78.5461	65.0637	69.5053	4.7521	1.0000
142.7000	78.5486	65.2957	69.7774	4.7526	1.0000
142.8000	78.5511	65.5278	70.0495	4.7530	1.0000
142.9000	78.5536	65.7598	70.3217	4.7534	1.0000
143.0000	78.5562	65.9918	70.5938	4.7538	1.0000
143.1000	78.4132	66.0245	70.6995	4.7543	1.0000
143.2000	78.1249	65.8578	70.6388	4.7547	1.0000
143.3000	77.8365	65.6911	70.5780	4.7551	1.0000
143.4000	77.5482	65.5244	70.5172	4.7555	1.0000
143.5000	77.2599	65.3576	70.4565	4.7560	1.0000
143.6000	76.9715	65.1909	70.3957	4.7564	1.0000
143.7000	76.6832	65.0242	70.3350	4.7568	1.0000
143.8000	76.4210	64.8856	70.3103	4.7572	1.0000
143.9000	76.7880	65.4223	71.1511	4.7577	1.0000
144.0000	77.1550	65.9590	71.9920	4.7581	1.0000
144.1000	77.5220	66.4957	72.8328	4.7585	1.0000
144.2000	77.8889	67.0324	73.6737	4.7589	1.0000
144.3000	78.2559	67.5690	74.5146	4.7594	1.0000
144.4000	78.6229	68.1057	75.3554	4.7598	1.0000
144.5000	78.9898	68.6424	76.1963	4.7603	1.0000
144.6000	79.3726	69.3261	76.8141	4.7608	1.0000
144.7000	79.7594	70.0466	77.3761	4.7614	1.0000
144.8000	80.1462	70.7671	77.9382	4.7620	1.0000
144.9000	80.5329	71.4877	78.5003	4.7625	1.0000
145.0000	80.9197	72.2082	79.0623	4.7631	1.0000
145.1000	81.3064	72.9287	79.6244	4.7637	1.0000
145.2000	81.6932	73.6492	80.1864	4.7642	1.0000
145.3000	81.9215	74.0600	80.4801	4.7648	1.0000
145.4000	81.6989	73.5895	80.0098	4.7654	1.0000
145.5000	81.4762	73.1189	79.5394	4.7659	1.0000
145.6000	81.2536	72.6484	79.0691	4.7665	1.0000
145.7000	81.0309	72.1779	78.5988	4.7671	1.0000
145.8000	80.8083	71.7073	78.1285	4.7676	1.0000
145.9000	80.5856	71.2368	77.6582	4.7682	1.0000
146.0000	80.3630	70.7662	77.1879	4.7688	1.0000
146.1000	80.1403	70.2957	76.7176	4.7693	1.0000
146.2000	79.9177	69.8251	76.2473	4.7699	1.0000
146.3000	79.6950	69.3546	75.7770	4.7705	1.0000
146.4000	79.5668	68.8831	75.4208	4.7710	1.0000
146.5000	79.4385	68.4116	75.0646	4.7716	1.0000
146.6000	79.3102	67.9401	74.7085	4.7722	1.0000
146.7000	79.1820	67.4686	74.3523	4.7727	1.0000
146.8000	79.0537	66.9971	73.9961	4.7733	1.0000
146.9000	78.9255	66.5256	73.6399	4.7739	1.0000
147.0000	78.7972	66.0541	73.2838	4.7744	1.0000
147.1000	78.6689	65.5826	72.9276	4.7750	1.0000
147.2000	78.5407	65.1110	72.5714	4.7756	1.0000
147.3000	78.3979	64.6827	72.2315	4.7761	1.0000
147.4000	78.1787	64.4807	71.9771	4.7767	1.0000
147.5000	77.9596	64.2788	71.7226	4.7773	1.0000
147.6000	77.7404	64.0769	71.4682	4.7778	1.0000
147.7000	77.5213	63.8750	71.2137	4.7784	1.0000
147.8000	77.3021	63.6731	70.9593	4.7790	1.0000
147.9000	77.0830	63.4711	70.7048	4.7795	1.0000
148.0000	76.8638	63.2692	70.4504	4.7801	1.0000
148.1000	76.7164	63.1470	70.3062	4.7807	1.0000
148.2000	77.0949	63.6092	70.9709	4.7812	1.0000
148.3000	77.4734	64.0715	71.6356	4.7818	1.0000
148.4000	77.8519	64.5338	72.3002	4.7824	1.0000
148.5000	78.2304	64.9960	72.9649	4.7829	1.0000
148.6000	78.6089	65.4583	73.6296	4.7835	1.0000
148.7000	78.9874	65.9206	74.2943	4.7841	1.0000
148.8000	79.3659	66.3828	74.9589	4.7846	1.0000
148.9000	79.8597	66.9173	75.7325	4.7852	1.0000
149.0000	80.3860	67.4721	76.5368	4.7858	1.0000
149.1000	80.9123	68.0269	77.3410	4.7863	1.0000
149.2000	81.4386	68.5817	78.1453	4.7869	1.0000
149.3000	81.9649	69.1365	78.9496	4.7875	1.0000
149.4000	82.4912	69.6913	79.7538	4.7869	1.0000
149.5000	83.0175	70.2461	80.5581	4.7854	1.0000
149.6000	83.3628	70.5579	81.0350	4.7839	1.0000
149.7000	83.1347	70.1002	80.4751	4.7824	1.0000
149.8000	82.9066	69.6425	79.9152	4.7809	1.0000
149.9000	82.6786	69.1848	79.3554	4.7794	1.0000
150.0000	82.4505	68.7272	78.7955	4.7779	1.0000
150.1000	82.2224	68.2695	78.2356	4.7764	1.0000
150.2000	81.9943	67.8118	77.6758	4.7748	1.0000
150.3000	81.7663	67.3541	77.1159	4.7733	1.0000
150.4000	81.5382	66.8964	76.5560	4.7718	1.0000
150.5000	81.3101	66.4387	75.9962	4.7703	1.0000
150.6000	81.0820	65.9810	75.4363	4.7688	1.0000
150.7000	81.2760	65.9906	75.3161	4.7673	1.0000
150.8000	81.4875	66.0197	75.2142	4.7658	1.0000
150.9000	81.6990	66.0487	75.1123	4.7643	1.0000
151.0000	81.9106	66.0778	75.0104	4.7627	1.0000
151.1000	82.1221	66.1069	74.9085	4.7612	1.0000
151.2000	82.3336	66.1359	74.8067	4.7597	1.0000
151.3000	82.5451	66.1650	74.7048	4.7582	1.0000
151.4000	82.7566	66.1940	74.6029	4.7567	1.0000
151.5000	82.7425	66.0499	74.3848	4.7552	1.0000
151.6000	82.4840	65.7180	74.0407	4.7537	1.0000
151.7000	82.2254	65.3862	73.6967	4.7522	1.0000
151.8000	81.9669	65.0543	73.3527	4.7507	1.0000
151.9000	81.7083	64.7225	73.0086	4.7491	1.0000
152.0000	81.4498	64.3906	72.6646	4.7476	1.0000
152.1000	81.1912	64.0588	72.3206	4.7461	1.0000
152.2000	80.9327	63.7269	71.9765	4.7446	1.0000
152.3000	80.9093	63.7039	71.8290	4.7431	1.0000
152.4000	81.2105	64.1072	71.9528	4.7416	1.0000
152.5000	81.5118	64.5105	72.0766	4.7401	1.0000
152.6000	81.8131	64.9138	72.2004	4.7386	1.0000
152.7000	82.1144	65.3171	72.3243	4.7370	1.0000
152.8000	82.4157	65.7204	72.4481	4.7355	1.0000
152.9000	82.7170	66.1237	72.5719	4.7340	1.0000
153.0000	83.0183	66.5270	72.6957	4.7325	1.0000
153.1000	83.2871	66.8832	72.8588	4.7331	1.0000
153.2000	83.5234	67.1924	73.0613	4.7354	1.0000
153.3000	83.7598	67.5016	73.2637	4.7377	1.0000
153.4000	83.9961	67.8107	73.4662	4.7400	1.0000
153.5000	84.2324	68.1199	73.6686	4.7423	1.0000
153.6000	84.4688	68.4291	73.8711	4.7445	1.0000
153.7000	84.7051	68.7382	74.0735	4.7468	1.0000
153.8000	84.9414	69.0474	74.2760	4.7491	1.0000
153.9000	85.1085	69.2751	74.3622	4.7514	1.0000
154.0000	84.9602	69.1317	73.9192	4.7537	1.0000
154.1000	84.8119	68.9883	73.4762	4.7560	1.0000
154.2000	84.6635	68.8449	73.0333	4.7583	1.0000
154.3000	84.5152	68.7015	72.5903	4.7605	1.0000
154.4000	84.3669	68.5581	72.1473	4.7628	1.0000
154.5000	84.2185	68.4147	71.7043	4.7651	1.0000
154.6000	84.0702	68.2713	71.2613	4.7674	1.0000
154.7000	83.9219	68.1279	70.8183	4.7697	1.0000
154.8000	83.7735	67.9845	70.3753	4.7720	1.0000
154.9000	83.6252	67.8411	69.9323	4.7743	1.0000
155.0000	83.5194	67.6825	69.5743	4.7765	1.0000
155.1000	83.4195	67.5217	69.2278	4.7788	1.0000
155.2000	83.3195	67.3610	68.8813	4.7811	1.0000
155.3000	83.2195	67.2003	68.5349	4.7834	1.0000
155.4000	83.1195	67.0396	68.1884	4.7857	1.0000
155.5000	83.0196	66.8789	67.8419	4.7880	1.0000
155.6000	82.9196	66.7182	67.4955	4.7903	1.0000
155.7000	82.8196	66.5575	67.1490	4.7925	1.0000
155.8000	82.7197	66.3968	66.8025	4.7948	1.0000
155.9000	82.6125	66.3771	66.6250	4.7971	1.0000
156.0000	82.4938	66.5876	66.7230	4.7994	1.0000
156.1000	82.3750	66.7980	66.8210	4.8017	1.0000
156.2000	82.2562	67.0085	66.9189	4.8040	1.0000
156.3000	82.1374	67.2189	67.0169	4.8063	1.0000
156.4000	82.0187	67.4294	67.1149	4.8085	1.0000
156.5000	81.8999	67.6399	67.2129	4.8108	1.0000
156.6000	81.7811	67.8503	67.3109	4.8131	1.0000
156.7000	81.6648	67.9865	67.4468	4.8154	1.0000
156.8000	81.5550	67.9316	67.6802	4.8177	1.0000
156.9000	81.4451	67.8768	67.9136	4.8200	1.0000
157.0000	81.3353	67.8219	68.1470	4.8222	1.0000
157.1000	81.2254	67.7670	68.3803	4.8245	1.0000
157.2000	81.1155	67.7122	68.6137	4.8268	1.0000
157.3000	81.0057	67.6573	68.8471	4.8291	1.0000
157.4000	80.8958	67.6024	69.0805	4.8314	1.0000
157.5000	81.3468	68.2300	69.8333	4.8337	1.0000
157.6000	81.8466	68.9169	70.6313	4.8360	1.0000
157.7000	82.3463	69.6037	71.4293	4.8382	1.0000
157.8000	82.8461	70.2906	72.2273	4.8405	1.0000
157.9000	83.3458	70.9775	73.0253	4.8428	1.0000
158.0000	83.8456	71.6644	73.8233	4.8451	1.0000
158.1000	84.3453	72.3513	74.6213	4.8474	1.0000
158.2000	84.7348	72.7845	75.2254	4.8497	1.0000
158.3000	85.0622	73.0750	75.7204	4.8508	1.0000
158.4000	85.3896	73.3655	76.2155	4.8494	1.0000
158.5000	85.7171	73.6560	76.7105	4.8480	1.0000
158.6000	86.0445	73.9465	77.2055	4.8466	1.0000
158.7000	86.3719	74.2370	77.7005	4.8452	1.0000
158.8000	86.6993	74.5276	78.1956	4.8439	1.0000
158.9000	87.0268	74.8181	78.6906	4.8425	1.0000
159.0000	86.8164	74.5110	78.1353	4.8411	1.0000
159.1000	86.5327	74.1225	77.4367	4.8397	1.0000
159.2000	86.2489	73.7340	76.7382	4.8383	1.0000
159.3000	85.9652	73.3455	76.0397	4.8369	1.0000
159.4000	85.6815	72.9570	75.3411	4.8356	1.0000
159.5000	85.3978	72.5685	74.6426	4.8342	1.0000
159.6000	85.1141	72.1800	73.9441	4.8328	1.0000
159.7000	84.8304	71.7915	73.2455	4.8314	1.0000
159.8000	84.5466	71.4030	72.5470	4.8300	1.0000
159.9000	84.2629	71.0144	71.8485	4.8286	1.0000
160.0000	84.0567	70.5964	71.2381	4.8272	1.0000
160.1000	84.0711	70.0943	70.8786	4.8259	1.0000
160.2000	84.0856	69.5922	70.5191	4.8245	1.0000
160.3000	84.1000	69.0901	70.1596	4.8231	1.0000
160.4000	84.1144	68.5880	69.8001	4.8217	1.0000
160.5000	84.1288	68.0859	69.4405	4.8203	1.0000
160.6000	84.1432	67.5838	69.0810	4.8189	1.0000
160.7000	84.1576	67.0817	68.7215	4.8176	1.0000
160.8000	84.1720	66.5796	68.3620	4.8162	1.0000
160.9000	84.1865	66.0774	68.0025	4.8148	1.0000
161.0000	84.0586	65.9976	68.1853	4.8134	1.0000
161.1000	83.9249	65.9353	68.3908	4.8120	1.0000
161.2000	83.7912	65.8730	68.5962	4.8106	1.0000
161.3000	83.6574	65.8107	68.8017	4.8093	1.0000
161.4000	83.5237	65.7484	69.0071	4.8079	1.0000
161.5000	83.3900	65.6861	69.2125	4.8065	1.0000
161.6000	83.2562	65.6238	69.4180	4.8051	1.0000
161.7000	83.1748	65.6207	69.6532	4.8037	1.0000
161.8000	83.3027	65.8543	70.0077	4.8023	1.0000
161.9000	83.4306	66.0879	70.3621	4.8009	1.0000
162.0000	83.5584	66.3215	70.7166	4.7996	1.0000
162.1000	83.6863	66.5551	71.0710	4.7982	1.0000
162.2000	83.8142	66.7887	71.4255	4.7968	1.0000
162.3000	83.9420	67.0223	71.7799	4.7954	1.0000
162.4000	84.0699	67.2559	72.1344	4.7940	1.0000
162.5000	84.4222	67.5934	72.7443	4.7926	1.0000
162.6000	84.8173	67.9506	73.4029	4.7913	1.0000
162.7000	85.2124	68.3079	74.0615	4.7899	1.0000
162.8000	85.6075	68.6652	74.7201	4.7887	1.0000
162.9000	86.0026	69.0224	75.3787	4.7884	1.0000
163.0000	86.3977	69.3797	76.0373	4.7881	1.0000
163.1000	86.7928	69.7369	76.6959	4.7879	1.0000
163.2000	87.0349	69.9311	77.0712	4.7876	1.0000
163.3000	86.8837	69.7061	76.7180	4.7874	1.0000
163.4000	86.7326	69.4811	76.3647	4.7871	1.0000
163.5000	86.5814	69.2560	76.0115	4.7868	1.0000
163.6000	86.4303	69.0310	75.6583	4.7866	1.0000
163.7000	86.2791	68.8060	75.3051	4.7863	1.0000
163.8000	86.1280	68.5809	74.9518	4.7861	1.0000
163.9000	85.9768	68.3559	74.5986	4.7858	1.0000
164.0000	85.8257	68.1309	74.2454	4.7855	1.0000
164.1000	85.6745	67.9058	73.8921	4.7853	1.0000
164.2000	85.5234	67.6808	73.5389	4.7850	1.0000
164.3000	85.4483	67.3372	73.1399	4.7848	1.0000
164.4000	85.3877	66.9710	72.7322	4.7845	1.0000
164.5000	85.3270	66.6048	72.3245	4.7842	1.0000
164.6000	85.2664	66.2386	71.9168	4.7840	1.0000
164.7000	85.2058	65.8724	71.5090	4.7837	1.0000
164.8000	85.1452	65.5062	71.1013	4.7835	1.0000
164.9000	85.0846	65.1400	70.6936	4.7832	1.0000
165.0000	85.0239	64.7738	70.2859	4.7829	1.0000
165.1000	84.9633	64.4076	69.8781	4.7827	1.0000
165.2000	84.9027	64.0414	69.4704	4.7824	1.0000
165.3000	84.8810	64.0046	69.3709	4.7822	1.0000
165.4000	84.8691	64.0501	69.3485	4.7819	1.0000
165.5000	84.8571	64.0956	69.3260	4.7816	1.0000
165.6000	84.8452	64.1411	69.3036	4.7814	1.0000
165.7000	84.8333	64.1866	69.2811	4.7811	1.0000
165.8000	84.8213	64.2321	69.2587	4.7808	1.0000
165.9000	84.8094	64.2776	69.2362	4.7806	1.0000
166.0000	84.7974	64.3231	69.2138	4.7803	1.0000
166.1000	84.7022	64.3484	69.1720	4.7801	1.0000
166.2000	84.3698	64.3165	69.0751	4.7798	1.0000
166.3000	84.0374	64.2845	68.9783	4.7795	1.0000
166.4000	83.7051	64.2526	68.8815	4.7793	1.0000
166.5000	83.3727	64.2207	68.7846	4.7790	1.0000
166.6000	83.0403	64.1887	68.6878	4.7788	1.0000
166.7000	82.7080	64.1568	68.5909	4.7785	1.0000
166.8000	82.3756	64.1248	68.4941	4.7782	1.0000
166.9000	82.6243	64.4988	68.8828	4.7780	1.0000
167.0000	83.2603	65.1435	69.5951	4.7777	1.0000
167.1000	83.8963	65.7881	70.3075	4.7775	1.0000
167.2000	84.5324	66.4327	71.0198	4.7772	1.0000
167.3000	85.1684	67.0774	71.7322	4.7769	1.0000
167.4000	85.8045	67.7220	72.4445	4.7767	1.0000
167.5000	86.4405	68.3667	73.1569	4.7771	1.0000
167.6000	86.9834	68.9314	73.7743	4.7777	1.0000
167.7000	86.6876	68.7772	73.5379	4.7784	1.0000
167.8000	86.3919	68.6229	73.3015	4.7790	1.0000
167.9000	86.0961	68.4687	73.0651	4.7796	1.0000
168.0000	85.8003	68.3144	72.8286	4.7802	1.0000
168.1000	85.5046	68.1602	72.5922	4.7809	1.0000
168.2000	85.2088	68.0059	72.3558	4.7815	1.0000
168.3000	84.9131	67.8517	72.1193	4.7821	1.0000
168.4000	84.6173	67.6974	71.8829	4.7828	1.0000
168.5000	84.3215	67.5431	71.6465	4.7834	1.0000
168.6000	84.0258	67.3889	71.4100	4.7840	1.0000
168.7000	83.7300	67.2346	71.1736	4.7847	1.0000
168.8000	83.5896	66.9794	70.8722	4.7853	1.0000
168.9000	83.4787	66.7049	70.5584	4.7859	1.0000
169.0000	83.3678	66.4305	70.2446	4.7866	1.0000
169.1000	83.2570	66.1560	69.9308	4.7872	1.0000
169.2000	83.1461	65.8816	69.6170	4.7878	1.0000
169.3000	83.0352	65.6071	69.3032	4.7884	1.0000
169.4000	82.9244	65.3326	68.9894	4.7891	1.0000
169.5000	82.8135	65.0582	68.6756	4.7897	1.0000
169.6000	82.7026	64.7837	68.3618	4.7903	1.0000
169.7000	82.5917	64.5092	68.0480	4.7910	1.0000
169.8000	82.5521	64.5832	68.1926	4.7916	1.0000
169.9000	82.5837	65.0054	68.7956	4.7922	1.0000
170.0000	82.6152	65.4277	69.3987	4.7929	1.0000
170.1000	82.6468	65.8500	70.0017	4.7935	1.0000
170.2000	82.6784	66.2723	70.6048	4.7941	1.0000
170.3000	82.7099	66.6946	71.2078	4.7948	1.0000
170.4000	82.7415	67.1169	71.8109	4.7954	1.0000
170.5000	82.7731	67.5392	72.4139	4.7960	1.0000
170.6000	82.7740	67.7402	72.7495	4.7966	1.0000
170.7000	82.7651	67.8713	73.0007	4.7973	1.0000
170.8000	82.7563	68.0024	73.2519	4.7979	1.0000
170.9000	82.7475	68.1335	73.5030	4.7985	1.0000
171.0000	82.7387	68.2646	73.7542	4.7992	1.0000
171.1000	82.7299	68.3957	74.0054	4.7998	1.0000
171.2000	82.7211	68.5267	74.2566	4.8004	1.0000
171.3000	83.0694	68.9794	74.7991	4.8011	1.0000
171.4000	83.8046	69.7803	75.6572	4.8017	1.0000
171.5000	84.5397	70.5813	76.5153	4.8023	1.0000
171.6000	85.2748	71.3822	77.3735	4.8030	1.0000
171.7000	86.0099	72.1831	78.2316	4.8015	1.0000
171.8000	86.7451	72.9841	79.0897	4.7987	1.0000
171.9000	87.4802	73.7850	79.9479	4.7958	1.0000
172.0000	88.1417	74.4909	80.7215	4.7930	1.0000
172.1000	88.5422	74.8597	81.1955	4.7902	1.0000
172.2000	88.9426	75.2285	81.6695	4.7873	1.0000
172.3000	89.3431	75.5972	82.1435	4.7845	1.0000
172.4000	89.7435	75.9660	82.6175	4.7816	1.0000
172.5000	90.1440	76.3348	83.0915	4.7788	1.0000
172.6000	90.5444	76.7036	83.5655	4.7760	1.0000
172.7000	90.9449	77.0724	84.0395	4.7731	1.0000
172.8000	91.2235	77.2842	84.3146	4.7703	1.0000
172.9000	90.9470	76.7809	83.6832	4.7675	1.0000
173.0000	90.6706	76.2775	83.0519	4.7646	1.0000
173.1000	90.3942	75.7742	82.4206	4.7618	1.0000
173.2000	90.1177	75.2709	81.7893	4.7590	1.0000
173.3000	89.8413	74.7676	81.1579	4.7561	1.0000
173.4000	89.5649	74.2643	80.5266	4.7533	1.0000
173.5000	89.2884	73.7610	79.8953	4.7504	1.0000
173.6000	89.0120	73.2577	79.2639	4.7476	1.0000
173.7000	88.7356	72.7543	78.6326	4.7448	1.0000
173.8000	88.4591	72.2510	78.0013	4.7419	1.0000
173.9000	88.2722	71.5016	77.2843	4.7391	1.0000
174.0000	88.0871	70.7470	76.5655	4.7363	1.0000
174.1000	87.9020	69.9925	75.8467	4.7334	1.0000
174.2000	87.7169	69.2380	75.1279	4.7306	1.0000
174.3000	87.5318	68.4835	74.4091	4.7278	1.0000
174.4000	87.3466	67.7290	73.6903	4.7249	1.0000
174.5000	87.1615	66.9745	72.9715	4.7221	1.0000
174.6000	86.9764	66.2200	72.2528	4.7192	1.0000
174.7000	87.0690	66.0329	72.1156	4.7164	1.0000
174.8000	87.2695	66.0665	72.2045	4.7136	1.0000
174.9000	87.4700	66.1001	72.2935	4.7107	1.0000
175.0000	87.6706	66.1337	72.3825	4.7079	1.0000
175.1000	87.8711	66.1673	72.4715	4.7051	1.0000
175.2000	88.0717	66.2009	72.5604	4.7022	1.0000
175.3000	88.2722	66.2345	72.6494	4.6994	1.0000
175.4000	88.4728	66.2681	72.7384	4.6965	1.0000
175.5000	88.5848	66.2936	72.7799	4.6937	1.0000
175.6000	88.6009	66.3102	72.7700	4.6909	1.0000
175.7000	88.6171	66.3268	72.7600	4.6880	1.0000
175.8000	88.6333	66.3435	72.7501	4.6852	1.0000
175.9000	88.6494	66.3601	72.7401	4.6873	1.0000
176.0000	88.6656	66.3767	72.7302	4.6899	1.0000
176.1000	88.6817	66.3934	72.7203	4.6924	1.0000
176.2000	88.6979	66.4100	72.7103	4.6950	1.0000
176.3000	88.7140	66.4266	72.7004	4.6975	1.0000
176.4000	88.6884	66.4042	72.6528	4.7001	1.0000
176.5000	88.4430	66.1764	72.4076	4.7026	1.0000
176.6000	88.1976	65.9487	72.1624	4.7052	1.0000
176.7000	87.9522	65.7209	71.9173	4.7078	1.0000
176.8000	87.7069	65.4932	71.6721	4.7103	1.0000
176.9000	87.4615	65.2654	71.4269	4.7129	1.0000
177.0000	87.2161	65.0377	71.1817	4.7154	1.0000
177.1000	86.9708	64.8100	70.9365	4.7180	1.0000
177.2000	86.7254	64.5822	70.6914	4.7205	1.0000
177.3000	86.4800	64.3545	70.4462	4.7231	1.0000
177.4000	86.2346	64.1267	70.2010	4.7256	1.0000
177.5000	86.0693	63.9709	69.9751	4.7282	1.0000
177.6000	86.0345	63.9326	69.7806	4.7307	1.0000
177.7000	85.9998	63.8943	69.5860	4.7333	1.0000
177.8000	85.9650	63.8559	69.3915	4.7358	1.0000
177.9000	85.9303	63.8176	69.1970	4.7384	1.0000
178.0000	85.8955	63.7793	69.0025	4.7410	1.0000
178.1000	85.8607	63.7409	68.8080	4.7435	1.0000
178.2000	85.8260	63.7026	68.6134	4.7461	1.0000
178.3000	85.7912	63.6642	68.4189	4.7486	1.0000
178.4000	85.6506	63.6524	68.2776	4.7512	1.0000
178.5000	85.2088	63.7158	68.2879	4.7537	1.0000
178.6000	84.7670	63.7793	68.2981	4.7563	1.0000
178.7000	84.3253	63.8428	68.3083	4.7588	1.0000
178.8000	83.8835	63.9062	68.3185	4.7614	1.0000
178.9000	83.4417	63.9697	68.3287	4.7639	1.0000
179.0000	82.9999	64.0332	68.3389	4.7665	1.0000
179.1000	82.5581	64.0967	68.3492	4.7690	1.0000
179.2000	82.6903	64.5525	68.9368	4.7716	1.0000
179.3000	83.1183	65.2105	69.8220	4.7742	1.0000
179.4000	83.5463	65.8685	70.7072	4.7767	1.0000
179.5000	83.9743	66.5265	71.5923	4.7793	1.0000
179.6000	84.4023	67.1845	72.4775	4.7818	1.0000
179.7000	84.8302	67.8425	73.3626	4.7844	1.0000
179.8000	85.2582	68.5005	74.2478	4.7869	1.0000
179.9000	85.6718	69.1224	75.0492	4.7895	1.0000
180.0000	86.0596	69.6801	75.7015	4.7920	1.0000
180.1000	86.4475	70.2378	76.3539	4.7946	1.0000
180.2000	86.8353	70.7956	77.0063	4.7971	1.0000
180.3000	87.2232	71.3533	77.6586	4.7997	1.0000
180.4000	87.6111	71.9111	78.3110	4.7989	1.0000
180.5000	87.9989	72.4688	78.9634	4.7969	1.0000
180.6000	88.3868	73.0265	79.6157	4.7950	1.0000
180.7000	88.5015	73.2622	79.8708	4.7931	1.0000
180.8000	87.9788	72.7465	79.1987	4.7912	1.0000
180.9000	87.4562	72.2308	78.5266	4.7893	1.0000
181.0000	86.9335	71.7151	77.8545	4.7874	1.0000
181.1000	86.4108	71.1994	77.1824	4.7855	1.0000
181.2000	85.8882	70.6837	76.5103	4.7836	1.0000
181.3000	85.3655	70.1680	75.8382	4.7817	1.0000
181.4000	84.8428	69.6523	75.1661	4.7798	1.0000
181.5000	84.3202	69.1366	74.4940	4.7778	1.0000
181.6000	83.7975	68.6209	73.8219	4.7759	1.0000
181.7000	83.2748	68.1052	73.1498	4.7740	1.0000
181.8000	82.7989	67.6079	72.5056	4.7721	1.0000
181.9000	82.6657	67.2454	72.0657	4.7702	1.0000
182.0000	82.5325	66.8830	71.6259	4.7683	1.0000
182.1000	82.3993	66.5205	71.1861	4.7664	1.0000
182.2000	82.2662	66.1580	70.7463	4.7645	1.0000
182.3000	82.1330	65.7956	70.3064	4.7626	1.0000
182.4000	81.9998	65.4331	69.8666	4.7607	1.0000
182.5000	81.8666	65.0706	69.4268	4.7588	1.0000
182.6000	81.7334	64.7082	68.9869	4.7568	1.0000
182.7000	81.6002	64.3457	68.5471	4.7549	1.0000
182.8000	81.3433	64.3129	68.5571	4.7530	1.0000
182.9000	81.0382	64.4083	68.7421	4.7511	1.0000
183.0000	80.7331	64.5037	68.9271	4.7492	1.0000
183.1000	80.4281	64.5991	69.1120	4.7473	1.0000
183.2000	80.1230	64.6945	69.2970	4.7454	1.0000
183.3000	79.8180	64.7899	69.4820	4.7435	1.0000
183.4000	79.5129	64.8853	69.6669	4.7416	1.0000
183.5000	79.2425	65.0037	69.8774	4.7397	1.0000
183.6000	79.8049	65.6734	70.7004	4.7377	1.0000
183.7000	80.3673	66.3431	71.5234	4.7358	1.0000
183.8000	80.9297	67.0128	72.3465	4.7338	1.0000
183.9000	81.4921	67.6826	73.1695	4.7311	1.0000
184.0000	82.0545	68.3523	73.9925	4.7283	1.0000
184.1000	82.6168	69.0220	74.8155	4.7256	1.0000
184.2000	83.1792	69.6917	75.6385	4.7229	1.0000
184.3000	83.1777	69.7183	75.6360	4.7202	1.0000
184.4000	82.8857	69.4135	75.2082	4.7174	1.0000
184.5000	82.5938	69.1087	74.7805	4.7147	1.0000
184.6000	82.3018	68.8039	74.3527	4.7120	1.0000
184.7000	82.0098	68.4991	73.9249	4.7092	1.0000
184.8000	81.7178	68.1943	73.4972	4.7065	1.0000
184.9000	81.4258	67.8896	73.0694	4.7038	1.0000
185.0000	81.1338	67.5848	72.6416	4.7011	1.0000
185.1000	80.8418	67.2800	72.2139	4.6983	1.0000
185.2000	80.5498	66.9752	71.7861	4.6956	1.0000
185.3000	80.2579	66.6704	71.3583	4.6929	1.0000
185.4000	80.2144	66.4814	71.1169	4.6901	1.0000
185.5000	80.2774	66.3419	70.9553	4.6874	1.0000
185.6000	80.3405	66.2025	70.7937	4.6847	1.0000
185.7000	80.4035	66.0631	70.6321	4.6820	1.0000
185.8000	80.4665	65.9236	70.4706	4.6792	1.0000
185.9000	80.5296	65.7842	70.3090	4.6765	1.0000
186.0000	80.5926	65.6448	70.1474	4.6738	1.0000
186.1000	80.6557	65.5054	69.9858	4.6711	1.0000
186.2000	80.7187	65.3659	69.8242	4.6683	1.0000
186.3000	80.7628	65.2239	69.6723	4.6656	1.0000
186.4000	80.5889	65.0515	69.6323	4.6629	1.0000
186.5000	80.4150	64.8791	69.5922	4.6601	1.0000
186.6000	80.2410	64.7067	69.5521	4.6574	1.0000
186.7000	80.0671	64.5343	69.5120	4.6547	1.0000
186.8000	79.8932	64.3619	69.4719	4.6520	1.0000
186.9000	79.7193	64.1895	69.4319	4.6492	1.0000
187.0000	79.5454	64.0171	69.3918	4.6465	1.0000
187.1000	79.4173	63.8993	69.4036	4.6438	1.0000
187.2000	79.6257	64.1819	69.7958	4.6410	1.0000
187.3000	79.8340	64.4645	70.1879	4.6383	1.0000
187.4000	80.0423	64.7471	70.5801	4.6356	1.0000
187.5000	80.2507	65.0297	70.9723	4.6329	1.0000
187.6000	80.4590	65.3123	71.3645	4.6301	1.0000
187.7000	80.6673	65.5949	71.7567	4.6274	1.0000
187.8000	80.8757	65.8775	72.1489	4.6247	1.0000
187.9000	81.1793	66.1650	72.4920	4.6219	1.0000
188.0000	81.5861	66.4577	72.7820	4.6192	1.0000
188.1000	81.9929	66.7505	73.0719	4.6165	1.0000
188.2000	82.3997	67.0433	73.3618	4.6157	1.0000
188.3000	82.8065	67.3361	73.6518	4.6156	1.0000
188.4000	83.2133	67.6289	73.9417	4.6155	1.0000
188.5000	83.6201	67.9217	74.2316	4.6154	1.0000
188.6000	84.0269	68.2145	74.5216	4.6153	1.0000
188.7000	84.3876	68.4668	74.7556	4.6152	1.0000
188.8000	84.0253	68.0843	74.1140	4.6150	1.0000
188.9000	83.6629	67.7019	73.4724	4.6149	1.0000
189.0000	83.3005	67.3195	72.8309	4.6148	1.0000
189.1000	82.9382	66.9370	72.1893	4.6147	1.0000
189.2000	82.5758	66.5546	71.5477	4.6146	1.0000
189.3000	82.2135	66.1722	70.9061	4.6145	1.0000
189.4000	81.8511	65.7898	70.2645	4.6143	1.0000
189.5000	81.4887	65.4073	69.6229	4.6142	1.0000
189.6000	81.1264	65.0249	68.9814	4.6141	1.0000
189.7000	80.7640	64.6425	68.3398	4.6140	1.0000
189.8000	80.4390	64.2810	67.7386	4.6139	1.0000
189.9000	80.5428	64.1601	67.6021	4.6137	1.0000
190.0000	80.6466	64.0392	67.4656	4.6136	1.0000
190.1000	80.7504	63.9183	67.3290	4.6135	1.0000
190.2000	80.8542	63.7974	67.1925	4.6134	1.0000
190.3000	80.9581	63.6765	67.0560	4.6133	1.0000
190.4000	81.0619	63.5556	66.9195	4.6132	1.0000
190.5000	81.1657	63.4347	66.7829	4.6130	1.0000
190.6000	81.2583	63.3662	66.6942	4.6129	1.0000
190.7000	81.2683	63.6812	66.9557	4.6128	1.0000
190.8000	81.2783	63.9963	67.2171	4.6127	1.0000
190.9000	81.2883	64.3114	67.4786	4.6126	1.0000
191.0000	81.2984	64.6265	67.7401	4.6125	1.0000
191.1000	81.3084	64.9416	68.0016	4.6123	1.0000
191.2000	81.3184	65.2566	68.2630	4.6122	1.0000
191.3000	81.3284	65.5717	68.5245	4.6121	1.0000
191.4000	81.7602	66.3094	69.1158	4.6120	1.0000
191.5000	82.3110	67.1662	69.8001	4.6119	1.0000
191.6000	82.8618	68.0231	70.4845	4.6117	1.0000
191.7000	83.4126	68.8799	71.1688	4.6116	1.0000
191.8000	83.9634	69.7368	71.8531	4.6115	1.0000
191.9000	84.5142	70.5937	72.5374	4.6131	1.0000
192.0000	85.0649	71.4505	73.2217	4.6172	1.0000
192.1000	85.3755	71.9386	73.6149	4.6213	1.0000
192.2000	85.1756	71.6429	73.3894	4.6254	1.0000
192.3000	84.9757	71.3473	73.1638	4.6295	1.0000
192.4000	84.7758	71.0517	72.9383	4.6336	1.0000
192.5000	84.5759	70.7560	72.7127	4.6377	1.0000
192.6000	84.3760	70.4604	72.4872	4.6418	1.0000
192.7000	84.1761	70.1647	72.2616	4.6459	1.0000
192.8000	83.9762	69.8691	72.0361	4.6500	1.0000
192.9000	83.7763	69.5735	71.8106	4.6540	1.0000
193.0000	83.5763	69.2778	71.5850	4.6581	1.0000
193.1000	83.3764	68.9822	71.3595	4.6622	1.0000
193.2000	83.3573	68.7111	71.2036	4.6663	1.0000
193.3000	83.5188	68.4644	71.1175	4.6704	1.0000
193.4000	83.6804	68.2178	71.0314	4.6745	1.0000
193.5000	83.8420	67.9711	70.9454	4.6786	1.0000
193.6000	84.0035	67.7245	70.8593	4.6827	1.0000
193.7000	84.1651	67.4778	70.7732	4.6868	1.0000
193.8000	84.3266	67.2312	70.6871	4.6909	1.0000
193.9000	84.4882	66.9845	70.6010	4.6950	1.0000
194.0000	84.6498	66.7379	70.5149	4.6991	1.0000
194.1000	84.8113	66.4912	70.4288	4.7032	1.0000
194.2000	84.6864	66.5737	70.6272	4.7073	1.0000
194.3000	84.5496	66.6699	70.8375	4.7114	1.0000
194.4000	84.4127	66.7661	71.0478	4.7155	1.0000
194.5000	84.2759	66.8623	71.2581	4.7196	1.0000
194.6000	84.1391	66.9585	71.4684	4.7237	1.0000
194.7000	84.0022	67.0547	71.6787	4.7278	1.0000
194.8000	83.8654	67.1509	71.8890	4.7319	1.0000
194.9000	83.7347	67.2507	72.1047	4.7360	1.0000
195.0000	83.9075	67.5278	72.5853	4.7401	1.0000
195.1000	84.0802	67.8050	73.0659	4.7442	1.0000
195.2000	84.2529	68.0822	73.5465	4.7483	1.0000
195.3000	84.4256	68.3593	74.0272	4.7524	1.0000
195.4000	84.5983	68.6365	74.5078	4.7565	1.0000
195.5000	84.7710	68.9136	74.9884	4.7606	1.0000
195.6000	84.9438	69.1908	75.4691	4.7647	1.0000
195.7000	85.1045	69.3904	75.8018	4.7688	1.0000
195.8000	85.2398	69.4251	75.8203	4.7729	1.0000
195.9000	85.3752	69.4598	75.8389	4.7770	1.0000
196.0000	85.5105	69.4945	75.8574	4.7811	1.0000
196.1000	85.6458	69.5293	75.8760	4.7773	1.0000
196.2000	85.7811	69.5640	75.8945	4.7736	1.0000
196.3000	85.9164	69.5987	75.9130	4.7699	1.0000
196.4000	86.0518	69.6334	75.9316	4.7661	1.0000
196.5000	86.1871	69.6682	75.9501	4.7624	1.0000
196.6000	86.2974	69.6646	75.9360	4.7587	1.0000
196.7000	86.1828	69.3162	75.6281	4.7549	1.0000
196.8000	86.0681	68.9679	75.3203	4.7512	1.0000
196.9000	85.9535	68.6195	75.0124	4.7475	1.0000
197.0000	85.8389	68.2711	74.7045	4.7437	1.0000
197.1000	85.7243	67.9228	74.3967	4.7400	1.0000
197.2000	85.6096	67.5744	74.0888	4.7363	1.0000
197.3000	85.4950	67.2261	73.7809	4.7325	1.0000
197.4000	85.3804	66.8777	73.4730	4.7288	1.0000
197.5000	85.2657	66.5293	73.1652	4.7251	1.0000
197.6000	85.1511	66.1810	72.8573	4.7213	1.0000
197.7000	85.2930	66.1087	72.9323	4.7176	1.0000
197.8000	85.4911	66.0970	73.0913	4.7139	1.0000
197.9000	85.6893	66.0852	73.2503	4.7101	1.0000
198.0000	85.8875	66.0735	73.4094	4.7064	1.0000
198.1000	86.0857	66.0618	73.5684	4.7027	1.0000
198.2000	86.2838	66.0501	73.7274	4.6989	1.0000
198.3000	86.4820	66.0384	73.8864	4.6952	1.0000
198.4000	86.6802	66.0267	74.0455	4.6915	1.0000
198.5000	86.6486	65.9188	73.9652	4.6878	1.0000
198.6000	86.2421	65.6542	73.4946	4.6840	1.0000
198.7000	85.8356	65.3896	73.0239	4.6803	1.0000
198.8000	85.4290	65.1249	72.5533	4.6766	1.0000
198.9000	85.0225	64.8603	72.0826	4.6728	1.0000
199.0000	84.6160	64.5957	71.6120	4.6691	1.0000
199.1000	84.2095	64.3310	71.1413	4.6654	1.0000
199.2000	83.8030	64.0664	70.6707	4.6616	1.0000
199.3000	83.6018	63.9293	70.4283	4.6579	1.0000
199.4000	83.9851	64.1554	70.8357	4.6542	1.0000
199.5000	84.3684	64.3814	71.2431	4.6504	1.0000
199.6000	84.7517	64.6075	71.6505	4.6467	1.0000
199.7000	85.1349	64.8335	72.0579	4.6430	1.0000
199.8000	85.5182	65.0596	72.4654	4.6392	1.0000
199.9000	85.9015	65.2856	72.8728	4.6355	1.0000
200.0000	86.2848	65.5117	73.2802	4.6320	1.0000
200.1000	86.5793	65.7212	73.6152	4.6290	1.0000
200.2000	86.4078	65.8443	73.5702	4.6260	1.0000
200.3000	86.2363	65.9673	73.5253	4.6230	1.0000
200.4000	86.0648	66.0903	73.4803	4.6200	1.0000
200.5000	85.8933	66.2134	73.4353	4.6170	1.0000
200.6000	85.7217	66.3364	73.3903	4.6140	1.0000
200.7000	85.5502	66.4595	73.3454	4.6110	1.0000
200.8000	85.3787	66.5825	73.3004	4.6081	1.0000
200.9000	85.2072	66.7056	73.2554	4.6051	1.0000
201.0000	85.0357	66.8286	73.2104	4.6021	1.0000
201.1000	84.8517	66.9117	73.1409	4.5991	1.0000
201.2000	84.5238	66.5348	72.7882	4.5961	1.0000
201.3000	84.1958	66.1580	72.4355	4.5931	1.0000
201.4000	83.8679	65.7811	72.0829	4.5901	1.0000
201.5000	83.5400	65.4043	71.7302	4.5871	1.0000
201.6000	83.2120	65.0274	71.3776	4.5841	1.0000
201.7000	82.8841	64.6506	71.0249	4.5811	1.0000
201.8000	82.5562	64.2737	70.6723	4.5781	1.0000
201.9000	82.2282	63.8969	70.3196	4.5751	1.0000
202.0000	81.9003	63.5200	69.9670	4.5721	1.0000
202.1000	81.5724	63.1432	69.6143	4.5691	1.0000
202.2000	81.2393	62.8387	69.3103	4.5661	1.0000
202.3000	80.8996	62.6263	69.0681	4.5631	1.0000
202.4000	80.5599	62.4139	68.8260	4.5601	1.0000
202.5000	80.2202	62.2015	68.5838	4.5572	1.0000
202.6000	79.8805	61.9892	68.3417	4.5542	1.0000
202.7000	79.5408	61.7768	68.0995	4.5512	1.0000
202.8000	79.2011	61.5644	67.8574	4.5482	1.0000
202.9000	78.8614	61.3520	67.6152	4.5452	1.0000
203.0000	78.6550	61.3101	67.5730	4.5422	1.0000
203.1000	79.1485	62.1632	68.5804	4.5392	1.0000
203.2000	79.6420	63.0163	69.5877	4.5362	1.0000
203.3000	80.1355	63.8694	70.5951	4.5332	1.0000
203.4000	80.6289	64.7225	71.6024	4.5302	1.0000
203.5000	81.1224	65.5756	72.6098	4.5272	1.0000
203.6000	81.6159	66.4287	73.6172	4.5242	1.0000
203.7000	82.1094	67.2817	74.6245	4.5237	1.0000
203.8000	82.4893	67.9146	75.3771	4.5283	1.0000
203.9000	82.6488	68.1200	75.6352	4.5329	1.0000
204.0000	82.8083	68.3255	75.8933	4.5375	1.0000
204.1000	82.9678	68.5309	76.1514	4.5422	1.0000
204.2000	83.1273	68.7363	76.4094	4.5468	1.0000
204.3000	83.2868	68.9417	76.6675	4.5514	1.0000
204.4000	83.4463	69.1471	76.9256	4.5561	1.0000
204.5000	83.6058	69.3526	77.1837	4.5607	1.0000
204.6000	83.7653	69.5580	77.4418	4.5653	1.0000
204.7000	83.7239	69.3932	77.3797	4.5699	1.0000
204.8000	83.4971	68.8867	77.0222	4.5746	1.0000
204.9000	83.2703	68.3801	76.6646	4.5792	1.0000
205.0000	83.0434	67.8736	76.3071	4.5838	1.0000
205.1000	82.8166	67.3671	75.9495	4.5885	1.0000
205.2000	82.5897	66.8606	75.5920	4.5931	1.0000
205.3000	82.3629	66.3540	75.2344	4.5977	1.0000
205.4000	82.1360	65.8475	74.8769	4.6023	1.0000
205.5000	81.9092	65.3410	74.5193	4.6070	1.0000
205.6000	81.6824	64.8344	74.1618	4.6116	1.0000
205.7000	81.5249	64.4056	73.8050	4.6162	1.0000
205.8000	81.6132	64.2522	73.4508	4.6209	1.0000
205.9000	81.7015	64.0989	73.0967	4.6255	1.0000
206.0000	81.7899	63.9455	72.7425	4.6301	1.0000
206.1000	81.8782	63.7921	72.3884	4.6347	1.0000
206.2000	81.9666	63.6387	72.0342	4.6394	1.0000
206.3000	82.0549	63.4854	71.6800	4.6440	1.0000
206.4000	82.1432	63.3320	71.3259	4.6486	1.0000
206.5000	82.2316	63.1786	70.9717	4.6533	1.0000
206.6000	82.0914	62.9930	70.7743	4.6579	1.0000
206.7000	81.8436	62.7921	70.6507	4.6625	1.0000
206.8000	81.5958	62.5913	70.5270	4.6671	1.0000
206.9000	81.3480	62.3905	70.4033	4.6718	1.0000
207.0000	81.1003	62.1896	70.2797	4.6764	1.0000
207.1000	80.8525	61.9888	70.1560	4.6810	1.0000
207.2000	80.6047	61.7880	70.0324	4.6857	1.0000
207.3000	80.3570	61.5871	69.9087	4.6903	1.0000
207.4000	80.7853	62.1280	70.6251	4.6949	1.0000
207.5000	81.2725	62.7333	71.4145	4.6995	1.0000
207.6000	81.7597	63.3386	72.2040	4.7042	1.0000
207.7000	82.2468	63.9439	72.9934	4.7088	1.0000
207.8000	82.7340	64.5492	73.7828	4.7134	1.0000
207.9000	83.2212	65.1545	74.5723	4.7181	1.0000
208.0000	83.7083	65.7599	75.3617	4.7227	1.0000
208.1000	84.0972	66.2534	75.9952	4.7273	1.0000
208.2000	83.8821	66.0602	75.6708	4.7281	1.0000
208.3000	83.6670	65.8670	75.3464	4.7283	1.0000
208.4000	83.4520	65.6738	75.0220	4.7285	1.0000
208.5000	83.2369	65.4806	74.6976	4.7288	1.0000
208.6000	83.0218	65.2874	74.3732	4.7290	1.0000
208.7000	82.8067	65.0942	74.0487	4.7292	1.0000
208.8000	82.5916	64.9010	73.7243	4.7295	1.0000
208.9000	82.3766	64.7078	73.3999	4.7297	1.0000
209.0000	82.1615	64.5146	73.0755	4.7299	1.0000
209.1000	81.9464	64.3214	72.7511	4.7302	1.0000
209.2000	81.7788	64.1034	72.4232	4.7304	1.0000
209.3000	81.6886	63.8451	72.0895	4.7306	1.0000
209.4000	81.5983	63.5869	71.7558	4.7309	1.0000
209.5000	81.5081	63.3286	71.4221	4.7311	1.0000
209.6000	81.4179	63.0703	71.0884	4.7313	1.0000
209.7000	81.3277	62.8120	70.7547	4.7316	1.0000
209.8000	81.2375	62.5537	70.4210	4.7318	1.0000
209.9000	81.1473	62.2954	70.0873	4.7320	1.0000
210.0000	81.0571	62.0371	69.7536	4.7323	1.0000
210.1000	80.9668	61.7789	69.4198	4.7325	1.0000
210.2000	80.8766	61.5206	69.0861	4.7327	1.0000
210.3000	80.8194	61.8513	69.3077	4.7329	1.0000
210.4000	80.7622	62.1821	69.5292	4.7332	1.0000
210.5000	80.7049	62.5128	69.7508	4.7334	1.0000
210.6000	80.6477	62.8436	69.9723	4.7336	1.0000
210.7000	80.5905	63.1743	70.1939	4.7339	1.0000
210.8000	80.5332	63.5051	70.4154	4.7341	1.0000
210.9000	80.4760	63.8358	70.6370	4.7343	1.0000
211.0000	80.4187	64.1666	70.8585	4.7346	1.0000
211.1000	80.2958	64.2623	71.1115	4.7348	1.0000
211.2000	80.1672	64.3376	71.3672	4.7350	1.0000
211.3000	80.0385	64.4129	71.6229	4.7353	1.0000
211.4000	79.9099	64.4882	71.8785	4.7355	1.0000
211.5000	79.7813	64.5635	72.1342	4.7357	1.0000
211.6000	79.6526	64.6388	72.3899	4.7360	1.0000
211.7000	79.5240	64.7141	72.6456	4.7362	1.0000
211.8000	79.6314	64.9679	73.0531	4.7364	1.0000
211.9000	80.0394	65.4487	73.6538	4.7367	1.0000
212.0000	80.4473	65.9295	74.2544	4.7369	1.0000
212.1000	80.8552	66.4104	74.8551	4.7371	1.0000
212.2000	81.2631	66.8912	75.4558	4.7374	1.0000
212.3000	81.6710	67.3721	76.0565	4.7376	1.0000
212.4000	82.0790	67.8529	76.6572	4.7378	1.0000
212.5000	82.4869	68.3338	77.2578	4.7381	1.0000
212.6000	82.3069	68.2965	77.0631	4.7384	1.0000
212.7000	82.0895	68.2261	76.8175	4.7387	1.0000
212.8000	81.8720	68.1558	76.5720	4.7390	1.0000
212.9000	81.6546	68.0854	76.3265	4.7393	1.0000
213.0000	81.4371	68.0150	76.0809	4.7396	1.0000
213.1000	81.2197	67.9446	75.8354	4.7399	1.0000
213.2000	81.0022	67.8743	75.5899	4.7402	1.0000
213.3000	80.7847	67.8039	75.3443	4.7405	1.0000
213.4000	80.5673	67.7335	75.0988	4.7408	1.0000
213.5000	80.3498	67.6632	74.8532	4.7411	1.0000
213.6000	80.1652	67.6098	74.6556	4.7414	1.0000
213.7000	80.1531	67.6456	74.7092	4.7418	1.0000
213.8000	80.1410	67.6814	74.7628	4.7421	1.0000
213.9000	80.1290	67.7172	74.8164	4.7424	1.0000
214.0000	80.1169	67.7530	74.8700	4.7427	1.0000
214.1000	80.1048	67.7888	74.9236	4.7430	1.0000
214.2000	80.0927	67.8246	74.9772	4.7433	1.0000
214.3000	80.0806	67.8604	75.0308	4.7436	1.0000
214.4000	80.0685	67.8961	75.0845	4.7439	1.0000
214.5000	80.0564	67.9319	75.1381	4.7442	1.0000
214.6000	80.0520	68.0034	75.2102	4.7445	1.0000
214.7000	80.0947	68.2940	75.3965	4.7448	1.0000
214.8000	80.1373	68.5846	75.5827	4.7451	1.0000
214.9000	80.1799	68.8753	75.7689	4.7455	1.0000
215.0000	80.2226	69.1659	75.9551	4.7458	1.0000
215.1000	80.2652	69.4565	76.1413	4.7461	1.0000
215.2000	80.3078	69.7471	76.3275	4.7464	1.0000
215.3000	80.3505	70.0377	76.5138	4.7467	1.0000
215.4000	80.3931	70.3283	76.7000	4.7470	1.0000
215.5000	80.2120	70.2527	76.7183	4.7473	1.0000
215.6000	79.9678	70.0737	76.6892	4.7476	1.0000
215.7000	79.7236	69.8948	76.6601	4.7479	1.0000
215.8000	79.4794	69.7158	76.6310	4.7482	1.0000
215.9000	79.2352	69.5368	76.6019	4.7485	1.0000
216.0000	78.9910	69.3579	76.5728	4.7489	1.0000
216.1000	78.7468	69.1789	76.5438	4.7492	1.0000
216.2000	78.7841	69.3032	76.7913	4.7495	1.0000
216.3000	79.3681	70.0162	77.5757	4.7498	1.0000
216.4000	79.9522	70.7291	78.3602	4.7501	1.0000
216.5000	80.5362	71.4421	79.1446	4.7504	1.0000
216.6000	81.1202	72.1551	79.9291	4.7507	1.0000
216.7000	81.7042	72.8680	80.7136	4.7514	1.0000
216.8000	82.2882	73.5810	81.4980	4.7524	1.0000
216.9000	82.8668	74.2857	82.2626	4.7533	1.0000
217.0000	83.3842	74.8956	82.7988	4.7542	1.0000
217.1000	83.9016	75.5055	83.3350	4.7551	1.0000
217.2000	84.4189	76.1153	83.8712	4.7561	1.0000
217.3000	84.9363	76.7252	84.4074	4.7570	1.0000
217.4000	85.4536	77.3351	84.9436	4.7579	1.0000
217.5000	85.9710	77.9450	85.4798	4.7588	1.0000
217.6000	86.4883	78.5548	86.0160	4.7598	1.0000
217.7000	86.7031	78.7701	86.1320	4.7607	1.0000
217.8000	86.2747	78.1466	85.3548	4.7616	1.0000
217.9000	85.8463	77.5232	84.5776	4.7625	1.0000
218.0000	85.4179	76.8998	83.8004	4.7635	1.0000
218.1000	84.9895	76.2764	83.0231	4.7644	1.0000
218.2000	84.5612	75.6530	82.2459	4.7653	1.0000
218.3000	84.1328	75.0296	81.4687	4.7662	1.0000
218.4000	83.7044	74.4062	80.6915	4.7672	1.0000
218.5000	83.2760	73.7828	79.9143	4.7681	1.0000
218.6000	82.8476	73.1594	79.1371	4.7690	1.0000
218.7000	82.4193	72.5360	78.3599	4.7699	1.0000
218.8000	82.0386	71.9327	77.6187	4.7709	1.0000
218.9000	82.0079	71.4769	77.1408	4.7718	1.0000
219.0000	81.9771	71.0210	76.6630	4.7727	1.0000
219.1000	81.9464	70.5651	76.1852	4.7736	1.0000
219.2000	81.9157	70.1092	75.7074	4.7746	1.0000
219.3000	81.8849	69.6533	75.2296	4.7755	1.0000
219.4000	81.8542	69.1974	74.7518	4.7764	1.0000
219.5000	81.8235	68.7416	74.2740	4.7773	1.0000
219.6000	81.7927	68.2857	73.7962	4.7783	1.0000
219.7000	81.7620	67.8298	73.3184	4.7792	1.0000
219.8000	81.6561	67.4399	72.9921	4.7801	1.0000
219.9000	81.3903	67.1903	72.9879	4.7810	1.0000
220.0000	81.1244	66.9408	72.9837	4.7820	1.0000
220.1000	80.8586	66.6912	72.9795	4.7829	1.0000
220.2000	80.5928	66.4416	72.9754	4.7838	1.0000
220.3000	80.3270	66.1920	72.9712	4.7847	1.0000
220.4000	80.0612	65.9425	72.9670	4.7857	1.0000
220.5000	79.7954	65.6929	72.9628	4.7866	1.0000
220.6000	79.6606	65.5813	73.0256	4.7875	1.0000
220.7000	79.9904	65.9590	73.3259	4.7884	1.0000
220.8000	80.3201	66.3366	73.6263	4.7894	1.0000
220.9000	80.6498	66.7143	73.9266	4.7903	1.0000
221.0000	80.9795	67.0920	74.2269	4.7912	1.0000
221.1000	81.3092	67.4697	74.5273	4.7921	1.0000
221.2000	81.6389	67.8473	74.8276	4.7931	1.0000
221.3000	81.9686	68.2250	75.1279	4.7940	1.0000
221.4000	82.2765	68.5662	75.4335	4.7949	1.0000
221.5000	82.5659	68.8762	75.7435	4.7958	1.0000
221.6000	82.8552	69.1862	76.0536	4.7965	1.0000
221.7000	83.1446	69.4963	76.3636	4.7973	1.0000
221.8000	83.4339	69.8063	76.6736	4.7980	1.0000
221.9000	83.7233	70.1163	76.9837	4.7987	1.0000
222.0000	84.0126	70.4264	77.2937	4.7995	1.0000
222.1000	84.3020	70.7364	77.6038	4.8002	1.0000
222.2000	84.5471	70.9336	77.7606	4.8010	1.0000
222.3000	84.7444	71.0086	77.7513	4.8017	1.0000
222.4000	84.9417	71.0836	77.7421	4.8025	1.0000
222.5000	85.1390	71.1586	77.7329	4.8032	1.0000
222.6000	85.3363	71.2336	77.7237	4.8040	1.0000
222.7000	85.5335	71.3086	77.7145	4.8047	1.0000
222.8000	85.7308	71.3836	77.7052	4.8055	1.0000
222.9000	85.9281	71.4586	77.6960	4.8062	1.0000
223.0000	86.1254	71.5336	77.6868	4.8069	1.0000
223.1000	86.1298	71.3249	77.3246	4.8077	1.0000
223.2000	86.0348	70.9701	76.7807	4.8084	1.0000
223.3000	85.9398	70.6152	76.2367	4.8092	1.0000
223.4000	85.8448	70.2604	75.6928	4.8099	1.0000
223.5000	85.7498	69.9056	75.1488	4.8107	1.0000
223.6000	85.6548	69.5507	74.6048	4.8114	1.0000
223.7000	85.5598	69.1959	74.0609	4.8122	1.0000
223.8000	85.4648	68.8410	73.5169	4.8129	1.0000
223.9000	85.3699	68.4862	72.9730	4.8137	1.0000
224.0000	85.2749	68.1313	72.4290	4.8144	1.0000
224.1000	85.3129	67.9492	72.2451	4.8151	1.0000
224.2000	85.3509	67.7670	72.0611	4.8159	1.0000
224.3000	85.3888	67.5848	71.8772	4.8166	1.0000
224.4000	85.4268	67.4027	71.6932	4.8174	1.0000
224.5000	85.4648	67.2205	71.5093	4.8181	1.0000
224.6000	85.5028	67.0383	71.3253	4.8189	1.0000
224.7000	85.5408	66.8562	71.1414	4.8196	1.0000
224.8000	85.5788	66.6740	70.9575	4.8204	1.0000
224.9000	85.4104	66.4291	70.7192	4.8211	1.0000
225.0000	85.0185	66.1161	70.4221	4.8218	1.0000
225.1000	84.6265	65.8032	70.1250	4.8226	1.0000
225.2000	84.2346	65.4902	69.8279	4.8233	1.0000
225.3000	83.8426	65.1773	69.5308	4.8241	1.0000
225.4000	83.4507	64.8643	69.2337	4.8248	1.0000
225.5000	83.0587	64.5514	68.9366	4.8256	1.0000
225.6000	82.6668	64.2384	68.6395	4.8263	1.0000
225.7000	83.1478	64.8856	69.3297	4.8271	1.0000
225.8000	83.7047	65.6162	70.1058	4.8278	1.0000
225.9000	84.2616	66.3469	70.8819	4.8286	1.0000
226.0000	84.8185	67.0775	71.6580	4.8293	1.0000
226.1000	85.3754	67.8082	72.4340	4.8300	1.0000
226.2000	85.9323	68.5388	73.2101	4.8308	1.0000
226.3000	86.4892	69.2695	73.9862	4.8315	1.0000
226.4000	86.8015	69.8121	74.5747	4.8323	1.0000
226.5000	86.9367	70.2186	75.0273	4.8330	1.0000
226.6000	87.0718	70.6251	75.4800	4.8338	1.0000
226.7000	87.2070	71.0317	75.9326	4.8328	1.0000
226.8000	87.3422	71.4382	76.3853	4.8308	1.0000
226.9000	87.4774	71.8447	76.8379	4.8288	1.0000
227.0000	87.6125	72.2512	77.2906	4.8267	1.0000
227.1000	87.7477	72.6577	77.7432	4.8247	1.0000
227.2000	87.7620	72.8716	77.9666	4.8227	1.0000
227.3000	87.3935	72.4755	77.4638	4.8207	1.0000
227.4000	87.0249	72.0794	76.9611	4.8187	1.0000
227.5000	86.6564	71.6833	76.4583	4.8167	1.0000
227.6000	86.2878	71.2872	75.9555	4.8147	1.0000
227.7000	85.9193	70.8911	75.4528	4.8127	1.0000
227.8000	85.5507	70.4950	74.9500	4.8107	1.0000
227.9000	85.1821	70.0989	74.4472	4.8087	1.0000
228.0000	84.8136	69.7028	73.9445	4.8067	1.0000
228.1000	84.4450	69.3067	73.4417	4.8047	1.0000
228.2000	84.0765	68.9106	72.9389	4.8027	1.0000
228.3000	84.1247	68.7408	72.9487	4.8007	1.0000
228.4000	84.2298	68.6020	73.0284	4.7987	1.0000
228.5000	84.3348	68.4632	73.1081	4.7967	1.0000
228.6000	84.4399	68.3244	73.1878	4.7947	1.0000
228.7000	84.5449	68.1855	73.2675	4.7927	1.0000
228.8000	84.6500	68.0467	73.3472	4.7907	1.0000
228.9000	84.7550	67.9079	73.4269	4.7887	1.0000
229.0000	84.8601	67.7690	73.5066	4.7867	1.0000
229.1000	84.8174	67.5941	73.5028	4.7847	1.0000
229.2000	84.3950	67.3265	73.2844	4.7827	1.0000
229.3000	83.9727	67.0589	73.0661	4.7807	1.0000
229.4000	83.5503	66.7913	72.8477	4.7787	1.0000
229.5000	83.1279	66.5236	72.6293	4.7766	1.0000
229.6000	82.7055	66.2560	72.4109	4.7746	1.0000
229.7000	82.2832	65.9884	72.1925	4.7726	1.0000
229.8000	81.8608	65.7207	71.9742	4.7706	1.0000
229.9000	81.8531	65.8490	72.1609	4.7686	1.0000
230.0000	82.2281	66.3426	72.7215	4.7666	1.0000
230.1000	82.6031	66.8362	73.2822	4.7646	1.0000
230.2000	82.9781	67.3298	73.8428	4.7626	1.0000
230.3000	83.3531	67.8234	74.4035	4.7606	1.0000
230.4000	83.7281	68.3170	74.9641	4.7586	1.0000
230.5000	84.1031	68.8106	75.5248	4.7566	1.0000
230.6000	84.4781	69.3042	76.0854	4.7546	1.0000
230.7000	84.6366	69.5294	76.2768	4.7526	1.0000
230.8000	84.7109	69.6503	76.3245	4.7499	1.0000
230.9000	84.7852	69.7711	76.3722	4.7448	1.0000
231.0000	84.8594	69.8920	76.4200	4.7397	1.0000
231.1000	84.9337	70.0129	76.4677	4.7346	1.0000
231.2000	85.0080	70.1337	76.5155	4.7295	1.0000
231.3000	85.0823	70.2546	76.5632	4.7244	1.0000
231.4000	85.1565	70.3755	76.6110	4.7193	1.0000
231.5000	85.2308	70.4963	76.6587	4.7142	1.0000
231.6000	85.2257	70.5026	76.6081	4.7091	1.0000
231.7000	84.9946	70.1827	76.2777	4.7040	1.0000
231.8000	84.7636	69.8628	75.9472	4.6990	1.0000
231.9000	84.5325	69.5429	75.6167	4.6939	1.0000
232.0000	84.3015	69.2230	75.2863	4.6888	1.0000
232.1000	84.0704	68.9031	74.9558	4.6837	1.0000
232.2000	83.8394	68.5832	74.6253	4.6786	1.0000
232.3000	83.6083	68.2632	74.2949	4.6735	1.0000
232.4000	83.3773	67.9433	73.9644	4.6684	1.0000
232.5000	83.1462	67.6234	73.6339	4.6633	1.0000
232.6000	82.9152	67.3035	73.3034	4.6582	1.0000
232.7000	82.7176	67.1185	72.9244	4.6531	1.0000
232.8000	82.5274	66.9630	72.5346	4.6481	1.0000
232.9000	82.3372	66.8076	72.1449	4.6430	1.0000
233.0000	82.1470	66.6521	71.7551	4.6379	1.0000
233.1000	81.9569	66.4967	71.3653	4.6328	1.0000
233.2000	81.7667	66.3412	70.9756	4.6277	1.0000
233.3000	81.5765	66.1858	70.5858	4.6226	1.0000
233.4000	81.3863	66.0304	70.1961	4.6175	1.0000
233.5000	81.7477	66.4914	70.5613	4.6124	1.0000
233.6000	82.2142	67.0700	71.0702	4.6073	1.0000
233.7000	82.6807	67.6485	71.5792	4.6022	1.0000
233.8000	83.1472	68.2270	72.0881	4.5971	1.0000
233.9000	83.6137	68.8056	72.5971	4.5921	1.0000
234.0000	84.0802	69.3841	73.1061	4.5870	1.0000
234.1000	84.5467	69.9626	73.6150	4.5819	1.0000
234.2000	84.9415	70.4835	74.1267	4.5768	1.0000
234.3000	85.2195	70.9104	74.6427	4.5746	1.0000
234.4000	85.4975	71.3372	75.1588	4.5786	1.0000
234.5000	85.7755	71.7641	75.6749	4.5826	1.0000
234.6000	86.0535	72.1909	76.1910	4.5867	1.0000
234.7000	86.3315	72.6178	76.7070	4.5907	1.0000
234.8000	86.6094	73.0446	77.2231	4.5947	1.0000
234.9000	86.8874	73.4715	77.7392	4.5987	1.0000
235.0000	87.0223	73.6481	77.9674	4.6027	1.0000
235.1000	86.8529	73.2928	77.5839	4.6068	1.0000
235.2000	86.6836	72.9375	77.2005	4.6108	1.0000
235.3000	86.5142	72.5822	76.8170	4.6148	1.0000
235.4000	86.3449	72.2270	76.4336	4.6188	1.0000
235.5000	86.1755	71.8717	76.0501	4.6228	1.0000
235.6000	86.0062	71.5164	75.6667	4.6269	1.0000
235.7000	85.8368	71.1612	75.2832	4.6309	1.0000
235.8000	85.6675	70.8059	74.8997	4.6349	1.0000
235.9000	85.4981	70.4506	74.5163	4.6389	1.0000
236.0000	85.3350	70.0991	74.1367	4.6429	1.0000
236.1000	85.4760	69.9302	73.9488	4.6469	1.0000
236.2000	85.6170	69.7614	73.7609	4.6510	1.0000
236.3000	85.7580	69.5925	73.5729	4.6550	1.0000
236.4000	85.8990	69.4236	73.3850	4.6590	1.0000
236.5000	86.0400	69.2548	73.1970	4.6630	1.0000
236.6000	86.1809	69.0859	73.0091	4.6670	1.0000
236.7000	86.3219	68.9170	72.8212	4.6711	1.0000
236.8000	86.4629	68.7482	72.6332	4.6751	1.0000
236.9000	86.5707	68.5683	72.4479	4.6791	1.0000
237.0000	86.2967	68.2620	72.2932	4.6831	1.0000
237.1000	86.0226	67.9556	72.1384	4.6871	1.0000
237.2000	85.7486	67.6493	71.9836	4.6911	1.0000
237.3000	85.4745	67.3429	71.8288	4.6952	1.0000
237.4000	85.2005	67.0366	71.6740	4.6992	1.0000
237.5000	84.9264	66.7303	71.5192	4.7032	1.0000
237.6000	84.6524	66.4239	71.3644	4.7072	1.0000
237.7000	84.3784	66.1176	71.2096	4.7112	1.0000
237.8000	84.4390	66.3367	71.5633	4.7153	1.0000
237.9000	84.5287	66.6016	71.9611	4.7193	1.0000
238.0000	84.6184	66.8664	72.3589	4.7233	1.0000
238.1000	84.7081	67.1313	72.7567	4.7273	1.0000
238.2000	84.7978	67.3961	73.1545	4.7313	1.0000
238.3000	84.8875	67.6609	73.5523	4.7353	1.0000
238.4000	84.9772	67.9258	73.9502	4.7394	1.0000
238.5000	85.1196	68.2415	74.3936	4.7434	1.0000
238.6000	85.5023	68.7892	75.0447	4.7474	1.0000
238.7000	85.8850	69.3368	75.6959	4.7514	1.0000
238.8000	86.2676	69.8845	76.3470	4.7528	1.0000
238.9000	86.6503	70.4321	76.9982	4.7537	1.0000
239.0000	87.0329	70.9797	77.6494	4.7546	1.0000
239.1000	87.4156	71.5274	78.3005	4.7555	1.0000
239.2000	87.7983	72.0750	78.9517	4.7564	1.0000
239.3000	87.7057	72.1287	78.9557	4.7573	1.0000
239.4000	87.3457	71.9046	78.5958	4.7582	1.0000
239.5000	86.9858	71.6804	78.2359	4.7591	1.0000
239.6000	86.6258	71.4563	77.8759	4.7599	1.0000
239.7000	86.2659	71.2321	77.5160	4.7608	1.0000
239.8000	85.9059	71.0080	77.1561	4.7617	1.0000
239.9000	85.5460	70.7838	76.7962	4.7626	1.0000
240.0000	85.1860	70.5597	76.4362	4.7635	1.0000
240.1000	84.8261	70.3355	76.0763	4.7644	1.0000
240.2000	84.4661	70.1114	75.7164	4.7653	1.0000
240.3000	84.1062	69.8872	75.3564	4.7662	1.0000
240.4000	83.9503	69.6646	75.1401	4.7671	1.0000
240.5000	83.8905	69.4427	74.9912	4.7680	1.0000
240.6000	83.8308	69.2208	74.8424	4.7689	1.0000
240.7000	83.7710	68.9989	74.6935	4.7698	1.0000
240.8000	83.7112	68.7770	74.5447	4.7707	1.0000
240.9000	83.6514	68.5552	74.3958	4.7715	1.0000
241.0000	83.5916	68.3333	74.2470	4.7724	1.0000
241.1000	83.5319	68.1114	74.0981	4.7733	1.0000
241.2000	83.4721	67.8895	73.9493	4.7742	1.0000
241.3000	83.5102	67.9698	74.0636	4.7751	1.0000
241.4000	83.7221	68.5875	74.6460	4.7760	1.0000
241.5000	83.9341	69.2052	75.2283	4.7769	1.0000
241.6000	84.1461	69.8229	75.8106	4.7778	1.0000
241.7000	84.3581	70.4407	76.3930	4.7787	1.0000
241.8000	84.5701	71.0584	76.9753	4.7796	1.0000
241.9000	84.7821	71.6761	77.5576	4.7805	1.0000
242.0000	84.9941	72.2938	78.1400	4.7814	1.0000
242.1000	84.8384	72.7113	78.5130	4.7822	1.0000
242.2000	84.5536	73.0585	78.8125	4.7831	1.0000
242.3000	84.2688	73.4058	79.1119	4.7840	1.0000
242.4000	83.9840	73.7530	79.4114	4.7849	1.0000
242.5000	83.6992	74.1002	79.7109	4.7858	1.0000
242.6000	83.4144	74.4474	80.0104	4.7867	1.0000
242.7000	83.1296	74.7947	80.3098	4.7876	1.0000
242.8000	83.3859	75.1622	80.7330	4.7885	1.0000
242.9000	83.6648	75.5306	81.1613	4.7894	1.0000
243.0000	83.9438	75.8991	81.5897	4.7903	1.0000
243.1000	84.2227	76.2675	82.0180	4.7912	1.0000
243.2000	84.5016	76.6359	82.4463	4.7921	1.0000
243.3000	84.7805	77.0043	82.8747	4.7929	1.0000
243.4000	85.1070	77.3961	83.3186	4.7938	1.0000
243.5000	85.6504	77.8944	83.8336	4.7947	1.0000
243.6000	86.1937	78.3927	84.3486	4.7956	1.0000
243.7000	86.7371	78.8910	84.8635	4.7965	1.0000
243.8000	87.2804	79.3893	85.3785	4.7974	1.0000
243.9000	87.8238	79.8877	85.8935	4.7983	1.0000
244.0000	88.3671	80.3860	86.4084	4.7964	1.0000
244.1000	88.9105	80.8843	86.9234	4.7916	1.0000
244.2000	88.6370	80.4925	86.3935	4.7868	1.0000
244.3000	88.1842	79.9054	85.6341	4.7820	1.0000
244.4000	87.7314	79.3182	84.8748	4.7771	1.0000
244.5000	87.2786	78.7311	84.1155	4.7723	1.0000
244.6000	86.8258	78.1440	83.3561	4.7675	1.0000
244.7000	86.3730	77.5568	82.5968	4.7626	1.0000
244.8000	85.9202	76.9697	81.8375	4.7578	1.0000
244.9000	85.4674	76.3826	81.0781	4.7530	1.0000
245.0000	85.0147	75.7954	80.3188	4.7482	1.0000
245.1000	84.5619	75.2083	79.5595	4.7433	1.0000
245.2000	84.1780	74.6583	78.8590	4.7385	1.0000
245.3000	84.2177	74.3363	78.5204	4.7337	1.0000
245.4000	84.2573	74.0143	78.1817	4.7289	1.0000
245.5000	84.2970	73.6923	77.8431	4.7240	1.0000
245.6000	84.3367	73.3703	77.5044	4.7192	1.0000
245.7000	84.3763	73.0483	77.1657	4.7144	1.0000
245.8000	84.4160	72.7263	76.8271	4.7095	1.0000
245.9000	84.4556	72.4043	76.4884	4.7047	1.0000
246.0000	84.4953	72.0823	76.1498	4.6999	1.0000
246.1000	84.2041	71.6650	75.7607	4.6951	1.0000
246.2000	83.8917	71.2416	75.3684	4.6902	1.0000
246.3000	83.5794	70.8182	74.9760	4.6854	1.0000
246.4000	83.2671	70.3948	74.5837	4.6806	1.0000
246.5000	82.9547	69.9714	74.1914	4.6757	1.0000
246.6000	82.6424	69.5480	73.7991	4.6709	1.0000
246.7000	82.3300	69.1246	73.4067	4.6661	1.0000
246.8000	82.0177	68.7012	73.0144	4.6613	1.0000
246.9000	82.3174	69.0318	73.1448	4.6564	1.0000
247.0000	82.6170	69.3624	73.2752	4.6516	1.0000
247.1000	82.9167	69.6930	73.4056	4.6468	1.0000
247.2000	83.2164	70.0237	73.5360	4.6419	1.0000
247.3000	83.5161	70.3543	73.6664	4.6371	1.0000
247.4000	83.8158	70.6849	73.7969	4.6323	1.0000
247.5000	84.1154	71.0155	73.9273	4.6305	1.0000
247.6000	84.4151	71.3461	74.0577	4.6306	1.0000
247.7000	84.1981	70.9456	73.7490	4.6308	1.0000
247.8000	83.9482	70.4984	73.4124	4.6310	1.0000
247.9000	83.6982	70.0512	73.0757	4.6312	1.0000
248.0000	83.4483	69.6040	72.7390	4.6313	1.0000
248.1000	83.1984	69.1569	72.4024	4.6315	1.0000
248.2000	82.9484	68.7097	72.0657	4.6317	1.0000
248.3000	82.6985	68.2625	71.7290	4.6318	1.0000
248.4000	82.4485	67.8153	71.3923	4.6320	1.0000
248.5000	82.1986	67.3681	71.0557	4.6322	1.0000
248.6000	81.9486	66.9209	70.7190	4.6324	1.0000
248.7000	81.6987	66.4738	70.3823	4.6325	1.0000
248.8000	81.6867	66.0986	69.9314	4.6327	1.0000
248.9000	81.6795	65.7250	69.4782	4.6329	1.0000
249.0000	81.6723	65.3513	69.0249	4.6331	1.0000
249.1000	81.6651	64.9777	68.5717	4.6332	1.0000
249.2000	81.6580	64.6040	68.1184	4.6334	1.0000
249.3000	81.6508	64.2303	67.6652	4.6336	1.0000
249.4000	81.6436	63.8567	67.2119	4.6337	1.0000
249.5000	81.6365	63.4830	66.7587	4.6339	1.0000
249.6000	81.6293	63.1094	66.3054	4.6341	1.0000
249.7000	81.6022	62.7451	65.8829	4.6343	1.0000
249.8000	81.2628	62.5287	65.9429	4.6344	1.0000
249.9000	80.9235	62.3124	66.0029	4.6346	1.0000
250.0000	80.5841	62.0960	66.0629	4.6348	1.0000
250.1000	80.2448	61.8796	66.1229	4.6350	1.0000
250.2000	79.9054	61.6632	66.1828	4.6351	1.0000
250.3000	79.5661	61.4468	66.2428	4.6353	1.0000
250.4000	79.2267	61.2304	66.3028	4.6355	1.0000
250.5000	78.8874	61.0140	66.3628	4.6356	1.0000
250.6000	79.0392	61.3024	66.7242	4.6358	1.0000
250.7000	79.3461	61.7503	67.1808	4.6360	1.0000
250.8000	79.6530	62.1983	67.6374	4.6362	1.0000
250.9000	79.9599	62.6462	68.0941	4.6363	1.0000
251.0000	80.2668	63.0941	68.5507	4.6365	1.0000
251.1000	80.5737	63.5420	69.0073	4.6367	1.0000
251.2000	80.8806	63.9899	69.4639	4.6369	1.0000
251.3000	81.2022	64.4861	69.9509	4.6370	1.0000
251.4000	81.6144	65.2788	70.6242	4.6372	1.0000
251.5000	82.0266	66.0716	71.2975	4.6374	1.0000
251.6000	82.4388	66.8644	71.9708	4.6376	1.0000
251.7000	82.8509	67.6571	72.6441	4.6421	1.0000
251.8000	83.2631	68.4499	73.3174	4.6469	1.0000
251.9000	83.6753	69.2426	73.9907	4.6516	1.0000
252.0000	84.0875	70.0354	74.6640	4.6563	1.0000
252.1000	84.4997	70.8282	75.3373	4.6611	1.0000
252.2000	84.1859	70.3290	74.8022	4.6658	1.0000
252.3000	83.8573	69.8034	74.2424	4.6706	1.0000
252.4000	83.5287	69.2779	73.6826	4.6753	1.0000
252.5000	83.2000	68.7524	73.1228	4.6800	1.0000
252.6000	82.8714	68.2268	72.5630	4.6848	1.0000
252.7000	82.5428	67.7013	72.0032	4.6895	1.0000
252.8000	82.2142	67.1757	71.4434	4.6942	1.0000
252.9000	81.8856	66.6502	70.8836	4.6990	1.0000
253.0000	81.5570	66.1246	70.3238	4.7037	1.0000
253.1000	81.2284	65.5991	69.7640	4.7085	1.0000
253.2000	80.9695	65.1341	69.2677	4.7132	1.0000
253.3000	80.9577	64.8837	68.9967	4.7179	1.0000
253.4000	80.9459	64.6333	68.7257	4.7227	1.0000
253.5000	80.9341	64.3829	68.4547	4.7274	1.0000
253.6000	80.9223	64.1326	68.1837	4.7322	1.0000
253.7000	80.9105	63.8822	67.9127	4.7369	1.0000
253.8000	80.8987	63.6318	67.6418	4.7416	1.0000
253.9000	80.8868	63.3814	67.3708	4.7464	1.0000
254.0000	80.8750	63.1311	67.0998	4.7511	1.0000
254.1000	80.8632	62.8807	66.8288	4.7559	1.0000
254.2000	80.7208	62.8328	66.6761	4.7606	1.0000
254.3000	80.4758	62.9440	66.6163	4.7653	1.0000
254.4000	80.2308	63.0552	66.5565	4.7701	1.0000
254.5000	79.9858	63.1664	66.4967	4.7748	1.0000
254.6000	79.7408	63.2776	66.4369	4.7796	1.0000
254.7000	79.4958	63.3888	66.3771	4.7843	1.0000
254.8000	79.2508	63.5000	66.3173	4.7890	1.0000
254.9000	79.0058	63.6112	66.2575	4.7938	1.0000
255.0000	79.0612	63.9916	66.5881	4.7985	1.0000
255.1000	79.3938	64.6207	67.2789	4.8033	1.0000
255.2000	79.7264	65.2497	67.9698	4.8080	1.0000
255.3000	80.0590	65.8788	68.6606	4.8127	1.0000
255.4000	80.3916	66.5078	69.3515	4.8175	1.0000
255.5000	80.7243	67.1369	70.0423	4.8222	1.0000
255.6000	81.0569	67.7659	70.7332	4.8270	1.0000
255.7000	81.3895	68.3949	71.4240	4.8317	1.0000
255.8000	81.8195	68.9194	72.1999	4.8350	1.0000
255.9000	82.2602	69.4323	72.9853	4.8303	1.0000
256.0000	82.7010	69.9451	73.7707	4.8257	1.0000
256.1000	83.1418	70.4579	74.5560	4.8211	1.0000
256.2000	83.5826	70.9708	75.3414	4.8165	1.0000
256.3000	84.0234	71.4836	76.1267	4.8118	1.0000
256.4000	84.4642	71.9965	76.9121	4.8072	1.0000
256.5000	84.9050	72.5093	77.6975	4.8026	1.0000
256.6000	84.8671	72.4251	77.5880	4.7980	1.0000
256.7000	84.6611	72.1311	77.1642	4.7934	1.0000
256.8000	84.4550	71.8372	76.7404	4.7887	1.0000
256.9000	84.2490	71.5432	76.3165	4.7841	1.0000
257.0000	84.0429	71.2492	75.8927	4.7795	1.0000
257.1000	83.8369	70.9552	75.4689	4.7749	1.0000
257.2000	83.6308	70.6612	75.0451	4.7703	1.0000
257.3000	83.4248	70.3673	74.6212	4.7656	1.0000
257.4000	83.2187	70.0733	74.1974	4.7610	1.0000
257.5000	83.0127	69.7793	73.7736	4.7564	1.0000
257.6000	82.8066	69.4853	73.3497	4.7518	1.0000
257.7000	82.9045	69.4000	73.0891	4.7472	1.0000
257.8000	83.0361	69.3378	72.8466	4.7425	1.0000
257.9000	83.1677	69.2757	72.6041	4.7379	1.0000
258.0000	83.2993	69.2135	72.3616	4.7333	1.0000
258.1000	83.4310	69.1514	72.1192	4.7287	1.0000
258.2000	83.5626	69.0892	71.8767	4.7241	1.0000
258.3000	83.6942	69.0271	71.6342	4.7194	1.0000
258.4000	83.8258	68.9649	71.3917	4.7148	1.0000
258.5000	83.9574	68.9028	71.1492	4.7102	1.0000
258.6000	83.8318	68.7717	70.9386	4.7056	1.0000
258.7000	83.5615	68.6018	70.7461	4.7010	1.0000
258.8000	83.2912	68.4320	70.5535	4.6963	1.0000
258.9000	83.0209	68.2621	70.3609	4.6917	1.0000
259.0000	82.7506	68.0923	70.1683	4.6871	1.0000
259.1000	82.4803	67.9224	69.9758	4.6825	1.0000
259.2000	82.2100	67.7526	69.7832	4.6779	1.0000
259.3000	81.9397	67.5827	69.5906	4.6732	1.0000
259.4000	81.9205	67.6126	69.6647	4.6686	1.0000
259.5000	82.1963	67.8768	70.0517	4.6640	1.0000
259.6000	82.4720	68.1410	70.4388	4.6594	1.0000
259.7000	82.7478	68.4053	70.8259	4.6548	1.0000
259.8000	83.0236	68.6695	71.2130	4.6501	1.0000
259.9000	83.2993	68.9338	71.6001	4.6455	1.0000
260.0000	83.5751	69.1980	71.9871	4.6427	1.0000
260.1000	83.8508	69.4623	72.3742	4.6423	1.0000
260.2000	84.1712	69.8173	72.8176	4.6419	1.0000
260.3000	84.5127	70.2151	73.2875	4.6414	1.0000
260.4000	84.8541	70.6129	73.7573	4.6410	1.0000
260.5000	85.1955	71.0107	74.2272	4.6405	1.0000
260.6000	85.5369	71.4085	74.6971	4.6401	1.0000
260.7000	85.8784	71.8062	75.1670	4.6397	1.0000
260.8000	86.2198	72.2040	75.6368	4.6392	1.0000
260.9000	86.5612	72.6018	76.1067	4.6388	1.0000
261.0000	86.3788	72.3513	75.8340	4.6383	1.0000
261.1000	86.0309	71.8961	75.3269	4.6379	1.0000
261.2000	85.6829	71.4409	74.8198	4.6375	1.0000
261.3000	85.3350	70.9857	74.3127	4.6370	1.0000
261.4000	84.9871	70.5305	73.8056	4.6366	1.0000
261.5000	84.6392	70.0753	73.2985	4.6361	1.0000
261.6000	84.2913	69.6201	72.7913	4.6357	1.0000
261.7000	83.9434	69.1649	72.2842	4.6353	1.0000
261.8000	83.5955	68.7097	71.7771	4.6348	1.0000
261.9000	83.2476	68.2545	71.2700	4.6344	1.0000
262.0000	82.8997	67.7993	70.7629	4.6339	1.0000
262.1000	82.6090	67.4086	70.3832	4.6335	1.0000
262.2000	82.3912	67.0998	70.1658	4.6330	1.0000
262.3000	82.1735	66.7910	69.9484	4.6326	1.0000
262.4000	81.9557	66.4823	69.7310	4.6322	1.0000
262.5000	81.7379	66.1735	69.5135	4.6317	1.0000
262.6000	81.5201	65.8648	69.2961	4.6313	1.0000
262.7000	81.3023	65.5560	69.0787	4.6308	1.0000
262.8000	81.0845	65.2472	68.8613	4.6304	1.0000
262.9000	80.8667	64.9385	68.6439	4.6300	1.0000
263.0000	80.6489	64.6297	68.4265	4.6295	1.0000
263.1000	80.4104	64.4127	68.3143	4.6291	1.0000
263.2000	80.1475	64.3035	68.3256	4.6286	1.0000
263.3000	79.8846	64.1942	68.3369	4.6282	1.0000
263.4000	79.6217	64.0850	68.3482	4.6278	1.0000
263.5000	79.3587	63.9757	68.3595	4.6273	1.0000
263.6000	79.0958	63.8665	68.3708	4.6269	1.0000
263.7000	78.8329	63.7572	68.3822	4.6264	1.0000
263.8000	78.5700	63.6480	68.3935	4.6260	1.0000
263.9000	78.5454	63.8577	68.6923	4.6256	1.0000
264.0000	79.1335	64.8874	69.7304	4.6251	1.0000
264.1000	79.7216	65.9172	70.7685	4.6247	1.0000
264.2000	80.3097	66.9470	71.8066	4.6242	1.0000
264.3000	80.8978	67.9768	72.8448	4.6238	1.0000
264.4000	81.4859	69.0066	73.8829	4.6233	1.0000
264.5000	82.0741	70.0364	74.9210	4.6229	1.0000
264.6000	82.6622	71.0662	75.9591	4.6222	1.0000
264.7000	82.8745	71.4882	76.3978	4.6208	1.0000
264.8000	82.6087	71.1367	76.0737	4.6194	1.0000
264.9000	82.3429	70.7852	75.7496	4.6180	1.0000
265.0000	82.0770	70.4337	75.4255	4.6166	1.0000
265.1000	81.8112	70.0822	75.1013	4.6152	1.0000
265.2000	81.5453	69.7307	74.7772	4.6138	1.0000
265.3000	81.2795	69.3792	74.4531	4.6124	1.0000
265.4000	81.0136	69.0277	74.1290	4.6111	1.0000
265.5000	80.7478	68.6762	73.8048	4.6097	1.0000
265.6000	80.4820	68.3247	73.4807	4.6083	1.0000
265.7000	80.2161	67.9732	73.1566	4.6069	1.0000
265.8000	80.3716	68.1509	73.2426	4.6055	1.0000
265.9000	80.5356	68.3393	73.3369	4.6041	1.0000
266.0000	80.6997	68.5277	73.4312	4.6027	1.0000
266.1000	80.8638	68.7162	73.5256	4.6013	1.0000
266.2000	81.0278	68.9046	73.6199	4.5999	1.0000
266.3000	81.1919	69.0931	73.7143	4.5985	1.0000
266.4000	81.3559	69.2815	73.8086	4.5971	1.0000
266.5000	81.5200	69.4699	73.9030	4.5957	1.0000
266.6000	81.2995	69.4423	73.8433	4.5943	1.0000
266.7000	80.9706	69.3538	73.7402	4.5929	1.0000
266.8000	80.6416	69.2653	73.6371	4.5915	1.0000
266.9000	80.3127	69.1768	73.5340	4.5901	1.0000
267.0000	79.9838	69.0882	73.4309	4.5888	1.0000
267.1000	79.6548	68.9997	73.3278	4.5874	1.0000
267.2000	79.3259	68.9112	73.2247	4.5860	1.0000
267.3000	79.3497	69.1130	73.4938	4.5846	1.0000
267.4000	80.1230	69.9320	74.5536	4.5832	1.0000
267.5000	80.8962	70.7510	75.6134	4.5818	1.0000
267.6000	81.6695	71.5699	76.6732	4.5804	1.0000
267.7000	82.4428	72.3889	77.7330	4.5790	1.0000
267.8000	83.2161	73.2078	78.7928	4.5778	1.0000
267.9000	83.9893	74.0268	79.8526	4.5792	1.0000
268.0000	84.7626	74.8457	80.9124	4.5806	1.0000
268.1000	84.7278	74.8079	80.8280	4.5820	1.0000
268.2000	84.3786	74.4370	80.2986	4.5835	1.0000
268.3000	84.0295	74.0661	79.7693	4.5849	1.0000
268.4000	83.6804	73.6952	79.2399	4.5863	1.0000
268.5000	83.3312	73.3242	78.7105	4.5877	1.0000
268.6000	82.9821	72.9533	78.1812	4.5891	1.0000
268.7000	82.6330	72.5824	77.6518	4.5905	1.0000
268.8000	82.2838	72.2114	77.1224	4.5919	1.0000
268.9000	81.9347	71.8405	76.5931	4.5933	1.0000
269.0000	81.5856	71.4696	76.0637	4.5947	1.0000
269.1000	81.2364	71.0986	75.5343	4.5961	1.0000
269.2000	80.9801	70.7129	75.0215	4.5975	1.0000
269.3000	80.8518	70.3069	74.5313	4.5989	1.0000
269.4000	80.7235	69.9008	74.0412	4.6004	1.0000
269.5000	80.5953	69.4947	73.5510	4.6018	1.0000
269.6000	80.4670	69.0886	73.0609	4.6032	1.0000
269.7000	80.3388	68.6825	72.5708	4.6046	1.0000
269.8000	80.2105	68.2765	72.0806	4.6060	1.0000
269.9000	80.0822	67.8704	71.5905	4.6074	1.0000
270.0000	79.9540	67.4643	71.1004	4.6088	1.0000
270.1000	79.8257	67.0582	70.6102	4.6102	1.0000
270.2000	79.6714	66.6907	70.2108	4.6116	1.0000
270.3000	79.3986	66.4986	70.2247	4.6130	1.0000
270.4000	79.1258	66.3065	70.2385	4.6144	1.0000
270.5000	78.8529	66.1144	70.2523	4.6158	1.0000
270.6000	78.5801	65.9223	70.2662	4.6172	1.0000
270.7000	78.3073	65.7302	70.2800	4.6187	1.0000
270.8000	78.0345	65.5381	70.2939	4.6201	1.0000
270.9000	77.7616	65.3460	70.3077	4.6215	1.0000
271.0000	77.8561	65.5462	70.6164	4.6229	1.0000
271.1000	78.6035	66.4440	71.4492	4.6243	1.0000
271.2000	79.3509	67.3417	72.2819	4.6257	1.0000
271.3000	80.0984	68.2395	73.1147	4.6271	1.0000
271.4000	80.8458	69.1372	73.9475	4.6285	1.0000
271.5000	81.5932	70.0350	74.7803	4.6299	1.0000
271.6000	82.3406	70.9327	75.6131	4.6313	1.0000
271.7000	83.0612	71.7838	76.4174	4.6327	1.0000
271.8000	83.6592	72.4225	77.0921	4.6341	1.0000
271.9000	84.2573	73.0611	77.7668	4.6355	1.0000
272.0000	84.8553	73.6997	78.4415	4.6350	1.0000
272.1000	85.4534	74.3384	79.1162	4.6329	1.0000
272.2000	86.0514	74.9770	79.7909	4.6308	1.0000
272.3000	86.6495	75.6156	80.4656	4.6287	1.0000
272.4000	87.2475	76.2542	81.1403	4.6265	1.0000
272.5000	87.2365	76.0420	80.9324	4.6244	1.0000
272.6000	86.8522	75.3082	80.1834	4.6223	1.0000
272.7000	86.4679	74.5744	79.4344	4.6202	1.0000
272.8000	86.0835	73.8406	78.6855	4.6181	1.0000
272.9000	85.6992	73.1068	77.9365	4.6160	1.0000
273.0000	85.3149	72.3730	77.1876	4.6139	1.0000
273.1000	84.9305	71.6392	76.4386	4.6118	1.0000
273.2000	84.5462	70.9054	75.6896	4.6096	1.0000
273.3000	84.1619	70.1716	74.9407	4.6075	1.0000
273.4000	83.7776	69.4378	74.1917	4.6054	1.0000
273.5000	83.3932	68.7040	73.4427	4.6033	1.0000
273.6000	83.4655	68.2915	73.0372	4.6012	1.0000
273.7000	83.5669	67.8994	72.6535	4.5991	1.0000
273.8000	83.6683	67.5073	72.2698	4.5970	1.0000
273.9000	83.7697	67.1152	71.8861	4.5949	1.0000
274.0000	83.8711	66.7231	71.5025	4.5928	1.0000
274.1000	83.9725	66.3310	71.1188	4.5906	1.0000
274.2000	84.0739	65.9389	70.7351	4.5885	1.0000
274.3000	84.1753	65.5468	70.3515	4.5864	1.0000
274.4000	84.2620	65.4691	70.2935	4.5843	1.0000
274.5000	84.3360	65.6591	70.5129	4.5822	1.0000
274.6000	84.4101	65.8491	70.7323	4.5801	1.0000
274.7000	84.4842	66.0391	70.9518	4.5780	1.0000
274.8000	84.5583	66.2292	71.1712	4.5759	1.0000
274.9000	84.6323	66.4192	71.3907	4.5738	1.0000
275.0000	84.7064	66.6092	71.6101	4.5716	1.0000
275.1000	84.7805	66.7992	71.8295	4.5695	1.0000
275.2000	84.8211	66.9048	71.9641	4.5674	1.0000
275.3000	84.8072	66.8725	71.9600	4.5653	1.0000
275.4000	84.7933	66.8402	71.9560	4.5649	1.0000
275.5000	84.7794	66.8079	71.9520	4.5650	1.0000
275.6000	84.7655	66.7756	71.9480	4.5652	1.0000
275.7000	84.7515	66.7433	71.9440	4.5654	1.0000
275.8000	84.7376	66.7110	71.9400	4.5656	1.0000
275.9000	84.7237	66.6787	71.9360	4.5658	1.0000
276.0000	84.7098	66.6464	71.9320	4.5660	1.0000
276.1000	84.6959	66.6141	71.9280	4.5662	1.0000
276.2000	84.6819	66.5818	71.9239	4.5664	1.0000
276.3000	84.5470	66.2162	71.6796	4.5665	1.0000
276.4000	84.4070	65.8367	71.4252	4.5667	1.0000
276.5000	84.2671	65.4572	71.1707	4.5669	1.0000
276.6000	84.1271	65.0776	70.9163	4.5671	1.0000
276.7000	83.9871	64.6981	70.6619	4.5673	1.0000
276.8000	83.8471	64.3186	70.4075	4.5675	1.0000
276.9000	83.7072	63.9391	70.1531	4.5677	1.0000
277.0000	83.5672	63.5596	69.8987	4.5679	1.0000
277.1000	83.4272	63.1801	69.6443	4.5680	1.0000
277.2000	83.2872	62.8005	69.3899	4.5682	1.0000
277.3000	83.0966	62.5321	69.1285	4.5684	1.0000
277.4000	82.8510	62.3839	68.8595	4.5686	1.0000
277.5000	82.6054	62.2358	68.5905	4.5688	1.0000
277.6000	82.3598	62.0876	68.3216	4.5690	1.0000
277.7000	82.1143	61.9394	68.0526	4.5692	1.0000
277.8000	81.8687	61.7913	67.7836	4.5694	1.0000
277.9000	81.6231	61.6431	67.5146	4.5696	1.0000
278.0000	81.3775	61.4950	67.2456	4.5697	1.0000
278.1000	81.2681	61.5416	67.2462	4.5699	1.0000
278.2000	81.4763	62.0427	67.8758	4.5701	1.0000
278.3000	81.6845	62.5438	68.5053	4.5703	1.0000
278.4000	81.8927	63.0449	69.1349	4.5705	1.0000
278.5000	82.1009	63.5460	69.7645	4.5707	1.0000
278.6000	82.3091	64.0471	70.3941	4.5709	1.0000
278.7000	82.5173	64.5482	71.0237	4.5711	1.0000
278.8000	82.7255	65.0493	71.6532	4.5712	1.0000
278.9000	83.1464	65.6053	72.3148	4.5714	1.0000
279.0000	83.6078	66.1717	72.9825	4.5716	1.0000
279.1000	84.0693	66.7381	73.6502	4.5718	1.0000
279.2000	84.5307	67.3045	74.3179	4.5720	1.0000
279.3000	84.9921	67.8709	74.9856	4.5722	1.0000
279.4000	85.4536	68.4373	75.6533	4.5723	1.0000
279.5000	85.9150	69.0037	76.3210	4.5721	1.0000
279.6000	86.3764	69.5701	76.9887	4.5720	1.0000
279.7000	86.1016	69.3456	76.6243	4.5718	1.0000
279.8000	85.8117	69.1049	76.2388	4.5717	1.0000
279.9000	85.5218	68.8643	75.8533	4.5715	1.0000
280.0000	85.2319	68.6237	75.4678	4.5714	1.0000
280.1000	84.9420	68.3830	75.0823	4.5713	1.0000
280.2000	84.6522	68.1424	74.6968	4.5711	1.0000
280.3000	84.3623	67.9017	74.3114	4.5710	1.0000
280.4000	84.0724	67.6611	73.9259	4.5708	1.0000
280.5000	83.7825	67.4204	73.5404	4.5707	1.0000
280.6000	83.4926	67.1798	73.1549	4.5706	1.0000
280.7000	83.4160	67.0275	72.8889	4.5704	1.0000
280.8000	83.4816	66.9341	72.7025	4.5703	1.0000
280.9000	83.5472	66.8408	72.5161	4.5701	1.0000
281.0000	83.6128	66.7474	72.3298	4.5700	1.0000
281.1000	83.6784	66.6540	72.1434	4.5698	1.0000
281.2000	83.7440	66.5606	71.9570	4.5697	1.0000
281.3000	83.8096	66.4673	71.7706	4.5696	1.0000
281.4000	83.8752	66.3739	71.5843	4.5694	1.0000
281.5000	83.9370	66.4760	71.6189	4.5693	1.0000
281.6000	83.9956	66.7446	71.8419	4.5691	1.0000
281.7000	84.0541	67.0132	72.0649	4.5690	1.0000
281.8000	84.1127	67.2818	72.2879	4.5689	1.0000
281.9000	84.1712	67.5504	72.5109	4.5687	1.0000
282.0000	84.2298	67.8189	72.7339	4.5686	1.0000
282.1000	84.2884	68.0875	72.9568	4.5684	1.0000
282.2000	84.3469	68.3561	73.1798	4.5683	1.0000
282.3000	84.6445	68.6896	73.6193	4.5681	1.0000
282.4000	84.9520	69.0257	74.0679	4.5680	1.0000
282.5000	85.2595	69.3619	74.5164	4.5679	1.0000
282.6000	85.5670	69.6980	74.9649	4.5677	1.0000
282.7000	85.8746	70.0341	75.4135	4.5676	1.0000
282.8000	86.1821	70.3703	75.8620	4.5688	1.0000
282.9000	86.4896	70.7064	76.3106	4.5703	1.0000
283.0000	86.7971	71.0426	76.7591	4.5719	1.0000
283.1000	86.7959	71.0309	76.7199	4.5735	1.0000
283.2000	86.4603	70.6424	76.1524	4.5751	1.0000
283.3000	86.1247	70.2539	75.5848	4.5767	1.0000
283.4000	85.7891	69.8654	75.0173	4.5783	1.0000
283.5000	85.4535	69.4769	74.4497	4.5799	1.0000
283.6000	85.1179	69.0884	73.8822	4.5815	1.0000
283.7000	84.7822	68.6999	73.3146	4.5831	1.0000
283.8000	84.4466	68.3115	72.7471	4.5847	1.0000
283.9000	84.1110	67.9230	72.1795	4.5863	1.0000
284.0000	83.7754	67.5345	71.6120	4.5879	1.0000
284.1000	83.4398	67.1460	71.0444	4.5895	1.0000
284.2000	83.1042	66.7575	70.4769	4.5911	1.0000
284.3000	83.1531	66.5215	70.2157	4.5927	1.0000
284.4000	83.2180	66.2918	69.9673	4.5943	1.0000
284.5000	83.2830	66.0622	69.7189	4.5959	1.0000
284.6000	83.3479	65.8325	69.4705	4.5975	1.0000
284.7000	83.4129	65.6029	69.2220	4.5991	1.0000
284.8000	83.4778	65.3732	68.9736	4.6007	1.0000
284.9000	83.5427	65.1436	68.7252	4.6022	1.0000
285.0000	83.6077	64.9139	68.4768	4.6038	1.0000
285.1000	83.6646	64.6890	68.2360	4.6054	1.0000
285.2000	83.3267	64.6970	68.3681	4.6070	1.0000
285.3000	82.9888	64.7049	68.5001	4.6086	1.0000
285.4000	82.6510	64.7128	68.6322	4.6102	1.0000
285.5000	82.3131	64.7208	68.7643	4.6118	1.0000
285.6000	81.9752	64.7287	68.8963	4.6134	1.0000
285.7000	81.6374	64.7367	69.0284	4.6150	1.0000
285.8000	81.2995	64.7446	69.1604	4.6166	1.0000
285.9000	81.2580	64.9677	69.5399	4.6182	1.0000
286.0000	81.9788	65.7440	70.5555	4.6198	1.0000
286.1000	82.6996	66.5204	71.5712	4.6214	1.0000
286.2000	83.4203	67.2968	72.5868	4.6230	1.0000
286.3000	84.1411	68.0731	73.6024	4.6246	1.0000
286.4000	84.8619	68.8495	74.6181	4.6262	1.0000
286.5000	85.5826	69.6259	75.6337	4.6278	1.0000
286.6000	86.3034	70.4022	76.6493	4.6294	1.0000
286.7000	86.4242	70.5497	76.8634	4.6310	1.0000
286.8000	86.2358	70.3731	76.6646	4.6326	1.0000
286.9000	86.0475	70.1966	76.4658	4.6341	1.0000
287.0000	85.8591	70.0201	76.2670	4.6338	1.0000
287.1000	85.6708	69.8436	76.0682	4.6336	1.0000
287.2000	85.4824	69.6671	75.8694	4.6333	1.0000
287.3000	85.2941	69.4905	75.6706	4.6331	1.0000
287.4000	85.1057	69.3140	75.4718	4.6328	1.0000
287.5000	84.9174	69.1375	75.2729	4.6326	1.0000
287.6000	84.7290	68.9610	75.0741	4.6323	1.0000
287.7000	84.5407	68.7844	74.8753	4.6321	1.0000
287.8000	84.5831	68.6554	74.7760	4.6318	1.0000
287.9000	84.8220	68.5668	74.7615	4.6316	1.0000
288.0000	85.0609	68.4781	74.7469	4.6313	1.0000
288.1000	85.2999	68.3895	74.7323	4.6311	1.0000
288.2000	85.5388	68.3009	74.7178	4.6308	1.0000
288.3000	85.7777	68.2122	74.7032	4.6306	1.0000
288.4000	86.0166	68.1236	74.6887	4.6303	1.0000
288.5000	86.2556	68.0350	74.6741	4.6301	1.0000
288.6000	86.4945	67.9463	74.6596	4.6298	1.0000
288.7000	86.2448	67.7591	74.6218	4.6296	1.0000
288.8000	85.9020	67.5532	74.5796	4.6294	1.0000
288.9000	85.5592	67.3472	74.5374	4.6291	1.0000
289.0000	85.2164	67.1412	74.4952	4.6289	1.0000
289.1000	84.8737	66.9353	74.4530	4.6286	1.0000
289.2000	84.5309	66.7293	74.4109	4.6284	1.0000
289.3000	84.1881	66.5233	74.3687	4.6281	1.0000
289.4000	83.9558	66.3951	74.4041	4.6279	1.0000
289.5000	84.5335	66.8372	75.0085	4.6276	1.0000
289.6000	85.1113	67.2793	75.6128	4.6274	1.0000
289.7000	85.6891	67.7213	76.2172	4.6271	1.0000
289.8000	86.2668	68.1634	76.8216	4.6269	1.0000
289.9000	86.8446	68.6055	77.4260	4.6266	1.0000
290.0000	87.4223	69.0475	78.0304	4.6264	1.0000
290.1000	88.0001	69.4896	78.6348	4.6261	1.0000
290.2000	88.0509	69.4015	78.5496	4.6259	1.0000
290.3000	87.8053	69.0152	78.0766	4.6293	1.0000
290.4000	87.5597	68.6288	77.6036	4.6332	1.0000
290.5000	87.3141	68.2425	77.1305	4.6372	1.0000
290.6000	87.0685	67.8562	76.6575	4.6411	1.0000
290.7000	86.8229	67.4698	76.1845	4.6450	1.0000
290.8000	86.5774	67.0835	75.7114	4.6490	1.0000
290.9000	86.3318	66.6972	75.2384	4.6529	1.0000
291.0000	86.0862	66.3108	74.7654	4.6568	1.0000
291.1000	85.8406	65.9245	74.2923	4.6608	1.0000
291.2000	85.5950	65.5382	73.8193	4.6647	1.0000
291.3000	85.4189	65.2215	73.3083	4.6686	1.0000
291.4000	85.2819	64.9441	72.7759	4.6726	1.0000
291.5000	85.1449	64.6667	72.2434	4.6765	1.0000
291.6000	85.0079	64.3893	71.7110	4.6804	1.0000
291.7000	84.8709	64.1119	71.1786	4.6844	1.0000
291.8000	84.7339	63.8345	70.6462	4.6883	1.0000
291.9000	84.5969	63.5571	70.1138	4.6922	1.0000
292.0000	84.4599	63.2796	69.5814	4.6962	1.0000
292.1000	84.3230	63.0022	69.0490	4.7001	1.0000
292.2000	84.1860	62.7248	68.5165	4.7040	1.0000
292.3000	84.0971	62.5880	68.1840	4.7080	1.0000
292.4000	84.1605	62.8966	68.4844	4.7119	1.0000
292.5000	84.2239	63.2053	68.7848	4.7158	1.0000
292.6000	84.2874	63.5139	69.0852	4.7198	1.0000
292.7000	84.3508	63.8225	69.3856	4.7237	1.0000
292.8000	84.4142	64.1311	69.6859	4.7276	1.0000
292.9000	84.4777	64.4397	69.9863	4.7316	1.0000
293.0000	84.5411	64.7483	70.2867	4.7355	1.0000
293.1000	84.6045	65.0569	70.5871	4.7394	1.0000
293.2000	84.6797	65.3796	71.0061	4.7434	1.0000
293.3000	84.7658	65.7153	71.5346	4.7473	1.0000
293.4000	84.8518	66.0510	72.0631	4.7512	1.0000
293.5000	84.9378	66.3867	72.5915	4.7552	1.0000
293.6000	85.0239	66.7224	73.1200	4.7591	1.0000
293.7000	85.1099	67.0581	73.6485	4.7630	1.0000
293.8000	85.1959	67.3939	74.1770	4.7670	1.0000
293.9000	85.2820	67.7296	74.7055	4.7709	1.0000
294.0000	85.0330	67.8886	74.7600	4.7748	1.0000
294.1000	84.5413	67.9196	74.4713	4.7788	1.0000
294.2000	84.0497	67.9507	74.1827	4.7827	1.0000
294.3000	83.5581	67.9817	73.8940	4.7866	1.0000
294.4000	83.0665	68.0128	73.6054	4.7906	1.0000
294.5000	82.5748	68.0438	73.3167	4.7945	1.0000
294.6000	82.0832	68.0749	73.0280	4.7932	1.0000
294.7000	81.9308	68.2831	73.1254	4.7919	1.0000
294.8000	82.7437	68.9958	74.3216	4.7907	1.0000
294.9000	83.5567	69.7085	75.5178	4.7894	1.0000
295.0000	84.3696	70.4213	76.7140	4.7881	1.0000
295.1000	85.1825	71.1340	77.9102	4.7868	1.0000
295.2000	85.9955	71.8467	79.1064	4.7856	1.0000
295.3000	86.8084	72.5594	80.3026	4.7843	1.0000
295.4000	87.6710	73.4192	81.4785	4.7830	1.0000
295.5000	88.6612	74.6575	82.6022	4.7817	1.0000
295.6000	89.6514	75.8957	83.7259	4.7805	1.0000
295.7000	90.6416	77.1340	84.8496	4.7792	1.0000
295.8000	91.6318	78.3722	85.9734	4.7779	1.0000
295.9000	92.6219	79.6105	87.0971	4.7766	1.0000
296.0000	93.6121	80.8487	88.2208	4.7754	1.0000
296.1000	94.6023	82.0870	89.3446	4.7741	1.0000
296.2000	94.5093	81.9472	89.3198	4.7728	1.0000
296.3000	94.3711	81.7501	89.2472	4.7715	1.0000
296.4000	94.2330	81.5529	89.1746	4.7703	1.0000
296.5000	94.0948	81.3558	89.1019	4.7690	1.0000
296.6000	93.9566	81.1587	89.0293	4.7677	1.0000
296.7000	93.8185	80.9615	88.9567	4.7664	1.0000
296.8000	93.6803	80.7644	88.8841	4.7652	1.0000
296.9000	93.5098	80.5277	88.7592	4.7639	1.0000
297.0000	92.9680	79.8368	88.0328	4.7626	1.0000
297.1000	92.4261	79.1459	87.3064	4.7614	1.0000
297.2000	91.8842	78.4550	86.5800	4.7601	1.0000
297.3000	91.3423	77.7641	85.8537	4.7588	1.0000
297.4000	90.8004	77.0732	85.1273	4.7575	1.0000
297.5000	90.2585	76.3823	84.4009	4.7563	1.0000
297.6000	89.7167	75.6914	83.6745	4.7550	1.0000
297.7000	89.4756	75.3422	83.2797	4.7537	1.0000
297.8000	89.3761	75.1538	83.0408	4.7524	1.0000
297.9000	89.2766	74.9654	82.8019	4.7512	1.0000
298.0000	89.1771	74.7770	82.5630	4.7499	1.0000
298.1000	89.0776	74.5886	82.3241	4.7486	1.0000
298.2000	88.9781	74.4003	82.0853	4.7473	1.0000
298.3000	88.8786	74.2119	81.8464	4.7461	1.0000
298.4000	88.8778	74.1051	81.6808	4.7448	1.0000
298.5000	89.3958	74.4267	81.8998	4.7435	1.0000
298.6000	89.9137	74.7484	82.1188	4.7422	1.0000
298.7000	90.4316	75.0700	82.3378	4.7410	1.0000
298.8000	90.9495	75.3917	82.5569	4.7397	1.0000
298.9000	91.4674	75.7133	82.7759	4.7384	1.0000
299.0000	91.9853	76.0350	82.9949	4.7371	1.0000
299.1000	92.5032	76.3566	83.2140	4.7359	1.0000
299.2000	92.9584	76.6207	83.4054	4.7359	1.0000
299.3000	93.0281	76.5312	83.4273	4.7359	1.0000
299.4000	93.0979	76.4417	83.4493	4.7359	1.0000
299.5000	93.1677	76.3522	83.4712	4.7359	1.0000
299.6000	93.2375	76.2627	83.4932	4.7359	1.0000
299.7000	93.3073	76.1732	83.5151	4.7359	1.0000
299.8000	93.3770	76.0836	83.5370	4.7359	1.0000
299.9000	93.4468	75.9941	83.5590	4.7359	1.0000
