Time	MABP [mmHg]	CBFV-L [cm/s]	CBFV-R [cm/s]	etCO2 [kPa]	MN					
0.0000	73.6858	62.7307	63.0133	5.2875	2.0000
0.1000	73.5309	62.6725	62.9169	5.2875	2.0000
0.2000	73.3760	62.6143	62.8205	5.2875	2.0000
0.3000	73.2212	62.5561	62.7241	5.2875	2.0000
0.4000	73.0663	62.4979	62.6277	5.2875	2.0000
0.5000	72.9114	62.4398	62.5313	5.2875	2.0000
0.6000	72.7566	62.3816	62.4349	5.2875	2.0000
0.7000	72.6017	62.3234	62.3385	5.2875	2.0000
0.8000	72.7203	62.5461	62.4903	5.2861	2.0000
0.9000	72.8445	62.7746	62.6472	5.2846	2.0000
1.0000	72.9687	63.0031	62.8041	5.2832	2.0000
1.1000	73.0929	63.2315	62.9610	5.2817	2.0000
1.2000	73.2171	63.4600	63.1179	5.2803	2.0000
1.3000	73.3413	63.6885	63.2748	5.2788	2.0000
1.4000	73.4655	63.9170	63.4317	5.2774	2.0000
1.5000	73.5897	64.1454	63.5886	5.2759	2.0000
1.6000	73.7139	64.3739	63.7455	5.2745	2.0000
1.7000	73.8381	64.6024	63.9025	5.2730	2.0000
1.8000	73.9623	64.8309	64.0594	5.2716	2.0000
1.9000	74.0865	65.0593	64.2163	5.2701	2.0000
2.0000	73.9724	65.0915	64.0962	5.2687	2.0000
2.1000	73.8485	65.1156	63.9646	5.2672	2.0000
2.2000	73.7245	65.1396	63.8329	5.2658	2.0000
2.3000	73.6005	65.1636	63.7013	5.2644	2.0000
2.4000	73.4766	65.1876	63.5697	5.2629	2.0000
2.5000	73.3526	65.2116	63.4381	5.2615	2.0000
2.6000	73.2286	65.2357	63.3065	5.2600	2.0000
2.7000	73.1047	65.2597	63.1748	5.2586	2.0000
2.8000	72.9807	65.2837	63.0432	5.2571	2.0000
2.9000	72.8567	65.3077	62.9116	5.2557	2.0000
3.0000	72.7328	65.3317	62.7800	5.2542	2.0000
3.1000	72.7035	65.4023	62.7238	5.2528	2.0000
3.2000	72.8427	65.5554	62.8019	5.2513	2.0000
3.3000	72.9818	65.7086	62.8800	5.2499	2.0000
3.4000	73.1210	65.8618	62.9580	5.2484	2.0000
3.5000	73.2601	66.0150	63.0361	5.2470	2.0000
3.6000	73.3993	66.1681	63.1141	5.2455	2.0000
3.7000	73.5384	66.3213	63.1922	5.2441	2.0000
3.8000	73.6776	66.4745	63.2703	5.2494	2.0000
3.9000	73.8167	66.6277	63.3483	5.2557	2.0000
4.0000	73.9558	66.7808	63.4264	5.2620	2.0000
4.1000	74.0950	66.9340	63.5044	5.2683	2.0000
4.2000	74.2341	67.0872	63.5825	5.2745	2.0000
4.3000	74.3106	67.1727	63.7192	5.2808	2.0000
4.4000	74.3378	67.2050	63.9019	5.2871	2.0000
4.5000	74.3650	67.2373	64.0846	5.2934	2.0000
4.6000	74.3922	67.2696	64.2673	5.2997	2.0000
4.7000	74.4194	67.3019	64.4500	5.3059	2.0000
4.8000	74.4466	67.3342	64.6327	5.3122	2.0000
4.9000	74.4738	67.3665	64.8154	5.3185	2.0000
5.0000	74.5009	67.3988	64.9982	5.3248	2.0000
5.1000	74.5281	67.4311	65.1809	5.3311	2.0000
5.2000	74.5553	67.4634	65.3636	5.3373	2.0000
5.3000	74.5825	67.4958	65.5463	5.3436	2.0000
5.4000	74.6097	67.5281	65.7290	5.3499	2.0000
5.5000	74.5599	67.4694	65.7906	5.3562	2.0000
5.6000	74.3733	67.2491	65.6368	5.3625	2.0000
5.7000	74.1867	67.0287	65.4830	5.3687	2.0000
5.8000	74.0001	66.8084	65.3292	5.3750	2.0000
5.9000	73.8135	66.5880	65.1753	5.3813	2.0000
6.0000	73.6269	66.3677	65.0215	5.3876	2.0000
6.1000	73.4403	66.1473	64.8677	5.3939	2.0000
6.2000	73.2537	65.9270	64.7139	5.4001	2.0000
6.3000	73.0671	65.7067	64.5601	5.4064	2.0000
6.4000	72.8804	65.4863	64.4063	5.4127	2.0000
6.5000	72.6938	65.2660	64.2525	5.4190	2.0000
6.6000	72.5072	65.0456	64.0987	5.4253	2.0000
6.7000	72.4957	64.9720	64.0498	5.4315	2.0000
6.8000	72.6334	65.0233	64.0904	5.4378	2.0000
6.9000	72.7711	65.0746	64.1309	5.4441	2.0000
7.0000	72.9088	65.1259	64.1714	5.4475	2.0000
7.1000	73.0465	65.1772	64.2120	5.4458	2.0000
7.2000	73.1842	65.2285	64.2525	5.4441	2.0000
7.3000	73.3219	65.2798	64.2930	5.4424	2.0000
7.4000	73.4597	65.3311	64.3336	5.4407	2.0000
7.5000	73.5974	65.3824	64.3741	5.4390	2.0000
7.6000	73.7351	65.4337	64.4146	5.4373	2.0000
7.7000	73.8728	65.4850	64.4552	5.4355	2.0000
7.8000	74.0105	65.5363	64.4957	5.4338	2.0000
7.9000	74.0911	65.5476	64.5212	5.4321	2.0000
8.0000	74.0388	65.4655	64.5118	5.4304	2.0000
8.1000	73.9864	65.3833	64.5024	5.4287	2.0000
8.2000	73.9341	65.3012	64.4930	5.4270	2.0000
8.3000	73.8817	65.2191	64.4835	5.4253	2.0000
8.4000	73.8294	65.1370	64.4741	5.4236	2.0000
8.5000	73.7770	65.0549	64.4647	5.4219	2.0000
8.6000	73.7247	64.9728	64.4553	5.4202	2.0000
8.7000	73.6723	64.8907	64.4458	5.4184	2.0000
8.8000	73.6200	64.8086	64.4364	5.4167	2.0000
8.9000	73.5676	64.7265	64.4270	5.4150	2.0000
9.0000	73.5153	64.6443	64.4175	5.4133	2.0000
9.1000	73.4629	64.5622	64.4081	5.4116	2.0000
9.2000	73.3064	64.4828	64.2917	5.4099	2.0000
9.3000	73.1477	64.4035	64.1732	5.4082	2.0000
9.4000	72.9891	64.3242	64.0546	5.4065	2.0000
9.5000	72.8305	64.2448	63.9361	5.4048	2.0000
9.6000	72.6718	64.1655	63.8175	5.4031	2.0000
9.7000	72.5132	64.0862	63.6989	5.4013	2.0000
9.8000	72.3546	64.0068	63.5804	5.3996	2.0000
9.9000	72.1959	63.9275	63.4618	5.3979	2.0000
10.0000	72.0373	63.8481	63.3433	5.3962	2.0000
10.1000	71.8786	63.7688	63.2247	5.3945	2.0000
10.2000	71.7200	63.6895	63.1062	5.3928	2.0000
10.3000	71.6304	63.6828	63.0206	5.3911	2.0000
10.4000	71.7373	63.8828	63.0289	5.3894	2.0000
10.5000	71.8443	64.0828	63.0373	5.3881	2.0000
10.6000	71.9512	64.2828	63.0456	5.3869	2.0000
10.7000	72.0582	64.4828	63.0539	5.3856	2.0000
10.8000	72.1651	64.6828	63.0623	5.3843	2.0000
10.9000	72.2720	64.8828	63.0706	5.3830	2.0000
11.0000	72.3790	65.0828	63.0789	5.3818	2.0000
11.1000	72.4859	65.2828	63.0873	5.3805	2.0000
11.2000	72.5928	65.4828	63.0956	5.3792	2.0000
11.3000	72.6998	65.6828	63.1040	5.3779	2.0000
11.4000	72.8067	65.8828	63.1123	5.3767	2.0000
11.5000	72.8839	66.0511	63.0889	5.3754	2.0000
11.6000	72.7784	66.0243	62.8705	5.3741	2.0000
11.7000	72.6728	65.9976	62.6522	5.3728	2.0000
11.8000	72.5673	65.9708	62.4338	5.3716	2.0000
11.9000	72.4617	65.9440	62.2155	5.3703	2.0000
12.0000	72.3562	65.9173	61.9971	5.3690	2.0000
12.1000	72.2506	65.8905	61.7787	5.3677	2.0000
12.2000	72.1450	65.8638	61.5604	5.3665	2.0000
12.3000	72.0395	65.8370	61.3420	5.3652	2.0000
12.4000	71.9339	65.8103	61.1237	5.3639	2.0000
12.5000	71.8284	65.7835	60.9053	5.3626	2.0000
12.6000	71.7228	65.7568	60.6869	5.3614	2.0000
12.7000	71.6173	65.7300	60.4686	5.3601	2.0000
12.8000	71.4575	65.5565	60.2731	5.3588	2.0000
12.9000	71.2965	65.3800	60.0780	5.3575	2.0000
13.0000	71.1356	65.2034	59.8830	5.3562	2.0000
13.1000	70.9746	65.0269	59.6879	5.3550	2.0000
13.2000	70.8137	64.8504	59.4929	5.3537	2.0000
13.3000	70.6527	64.6739	59.2978	5.3524	2.0000
13.4000	70.4918	64.4974	59.1028	5.3511	2.0000
13.5000	70.3309	64.3208	58.9078	5.3499	2.0000
13.6000	70.1699	64.1443	58.7127	5.3486	2.0000
13.7000	70.0090	63.9678	58.5177	5.3475	2.0000
13.8000	69.8480	63.7913	58.3226	5.3472	2.0000
13.9000	69.7037	63.6345	58.1487	5.3470	2.0000
14.0000	69.7506	63.7044	58.2174	5.3467	2.0000
14.1000	69.7975	63.7744	58.2861	5.3464	2.0000
14.2000	69.8444	63.8443	58.3548	5.3462	2.0000
14.3000	69.8913	63.9143	58.4235	5.3459	2.0000
14.4000	69.9381	63.9842	58.4922	5.3456	2.0000
14.5000	69.9850	64.0542	58.5609	5.3454	2.0000
14.6000	70.0319	64.1242	58.6296	5.3451	2.0000
14.7000	70.0788	64.1941	58.6983	5.3448	2.0000
14.8000	70.1257	64.2641	58.7671	5.3445	2.0000
14.9000	70.1726	64.3340	58.8358	5.3443	2.0000
15.0000	70.2195	64.4040	58.9045	5.3440	2.0000
15.1000	70.2663	64.4739	58.9732	5.3437	2.0000
15.2000	70.1651	64.3276	58.9062	5.3435	2.0000
15.3000	70.0398	64.1461	58.8172	5.3432	2.0000
15.4000	69.9145	63.9647	58.7281	5.3429	2.0000
15.5000	69.7892	63.7832	58.6391	5.3426	2.0000
15.6000	69.6639	63.6017	58.5500	5.3424	2.0000
15.7000	69.5385	63.4202	58.4610	5.3421	2.0000
15.8000	69.4132	63.2387	58.3719	5.3418	2.0000
15.9000	69.2879	63.0572	58.2829	5.3416	2.0000
16.0000	69.1626	62.8757	58.1938	5.3413	2.0000
16.1000	69.0373	62.6942	58.1048	5.3410	2.0000
16.2000	68.9119	62.5128	58.0157	5.3407	2.0000
16.3000	68.7866	62.3313	57.9267	5.3405	2.0000
16.4000	68.6807	62.2304	57.9332	5.3402	2.0000
16.5000	68.5780	62.1428	57.9552	5.3399	2.0000
16.6000	68.4753	62.0551	57.9772	5.3397	2.0000
16.7000	68.3726	61.9674	57.9992	5.3394	2.0000
16.8000	68.2698	61.8797	58.0212	5.3391	2.0000
16.9000	68.1671	61.7920	58.0433	5.3388	2.0000
17.0000	68.0644	61.7043	58.0653	5.3386	2.0000
17.1000	67.9616	61.6166	58.0873	5.3383	2.0000
17.2000	67.8589	61.5289	58.1093	5.3380	2.0000
17.3000	67.7562	61.4412	58.1314	5.3378	2.0000
17.4000	67.6535	61.3535	58.1534	5.3375	2.0000
17.5000	67.5820	61.3070	58.2045	5.3373	2.0000
17.6000	67.6746	61.4772	58.4083	5.3372	2.0000
17.7000	67.7672	61.6473	58.6122	5.3372	2.0000
17.8000	67.8599	61.8174	58.8160	5.3372	2.0000
17.9000	67.9525	61.9875	59.0199	5.3372	2.0000
18.0000	68.0451	62.1576	59.2237	5.3371	2.0000
18.1000	68.1377	62.3277	59.4275	5.3371	2.0000
18.2000	68.2304	62.4978	59.6314	5.3371	2.0000
18.3000	68.3230	62.6679	59.8352	5.3370	2.0000
18.4000	68.4156	62.8381	60.0390	5.3370	2.0000
18.5000	68.5083	63.0082	60.2429	5.3370	2.0000
18.6000	68.6009	63.1783	60.4467	5.3369	2.0000
18.7000	68.6423	63.2992	60.5900	5.3369	2.0000
18.8000	68.4789	63.2232	60.4912	5.3369	2.0000
18.9000	68.3156	63.1472	60.3923	5.3368	2.0000
19.0000	68.1522	63.0713	60.2934	5.3368	2.0000
19.1000	67.9888	62.9953	60.1945	5.3368	2.0000
19.2000	67.8255	62.9193	60.0957	5.3367	2.0000
19.3000	67.6621	62.8434	59.9968	5.3367	2.0000
19.4000	67.4987	62.7674	59.8979	5.3367	2.0000
19.5000	67.3354	62.6915	59.7991	5.3366	2.0000
19.6000	67.1720	62.6155	59.7002	5.3366	2.0000
19.7000	67.0086	62.5395	59.6013	5.3366	2.0000
19.8000	66.8453	62.4636	59.5025	5.3366	2.0000
19.9000	66.7711	62.4807	59.4843	5.3365	2.0000
20.0000	66.7862	62.5909	59.5467	5.3365	2.0000
20.1000	66.8014	62.7010	59.6092	5.3365	2.0000
20.2000	66.8165	62.8112	59.6717	5.3364	2.0000
20.3000	66.8316	62.9214	59.7342	5.3364	2.0000
20.4000	66.8467	63.0316	59.7967	5.3364	2.0000
20.5000	66.8618	63.1418	59.8591	5.3363	2.0000
20.6000	66.8769	63.2519	59.9216	5.3379	2.0000
20.7000	66.8920	63.3621	59.9841	5.3395	2.0000
20.8000	66.9072	63.4723	60.0466	5.3411	2.0000
20.9000	66.9223	63.5825	60.1091	5.3427	2.0000
21.0000	66.9374	63.6927	60.1715	5.3443	2.0000
21.1000	67.0007	63.8012	60.2926	5.3459	2.0000
21.2000	67.1204	63.9077	60.4823	5.3475	2.0000
21.3000	67.2402	64.0142	60.6721	5.3491	2.0000
21.4000	67.3600	64.1207	60.8619	5.3507	2.0000
21.5000	67.4798	64.2272	61.0517	5.3523	2.0000
21.6000	67.5996	64.3337	61.2414	5.3539	2.0000
21.7000	67.7193	64.4402	61.4312	5.3555	2.0000
21.8000	67.8391	64.5467	61.6210	5.3572	2.0000
21.9000	67.9589	64.6533	61.8108	5.3588	2.0000
22.0000	68.0787	64.7598	62.0005	5.3604	2.0000
22.1000	68.1984	64.8663	62.1903	5.3620	2.0000
22.2000	68.3182	64.9728	62.3801	5.3636	2.0000
22.3000	68.4121	65.0121	62.4884	5.3652	2.0000
22.4000	68.4321	64.8599	62.3650	5.3668	2.0000
22.5000	68.4522	64.7078	62.2416	5.3684	2.0000
22.6000	68.4723	64.5557	62.1182	5.3700	2.0000
22.7000	68.4923	64.4036	61.9948	5.3716	2.0000
22.8000	68.5124	64.2515	61.8714	5.3732	2.0000
22.9000	68.5325	64.0994	61.7480	5.3748	2.0000
23.0000	68.5525	63.9473	61.6246	5.3764	2.0000
23.1000	68.5726	63.7952	61.5012	5.3780	2.0000
23.2000	68.5927	63.6430	61.3778	5.3796	2.0000
23.3000	68.6127	63.4909	61.2544	5.3812	2.0000
23.4000	68.6328	63.3388	61.1310	5.3828	2.0000
23.5000	68.6972	63.2514	61.0012	5.3845	2.0000
23.6000	68.8755	63.3302	60.8549	5.3861	2.0000
23.7000	69.0539	63.4090	60.7087	5.3877	2.0000
23.8000	69.2323	63.4878	60.5624	5.3893	2.0000
23.9000	69.4107	63.5666	60.4161	5.3909	2.0000
24.0000	69.5890	63.6455	60.2698	5.3925	2.0000
24.1000	69.7674	63.7243	60.1235	5.3943	2.0000
24.2000	69.9458	63.8031	59.9772	5.3962	2.0000
24.3000	70.1241	63.8819	59.8309	5.3981	2.0000
24.4000	70.3025	63.9607	59.6846	5.4000	2.0000
24.5000	70.4809	64.0395	59.5384	5.4019	2.0000
24.6000	70.6592	64.1184	59.3921	5.4038	2.0000
24.7000	70.8376	64.1972	59.2458	5.4057	2.0000
24.8000	70.8486	64.1486	59.1290	5.4075	2.0000
24.9000	70.8324	64.0793	59.0170	5.4094	2.0000
25.0000	70.8161	64.0099	58.9051	5.4113	2.0000
25.1000	70.7999	63.9406	58.7931	5.4132	2.0000
25.2000	70.7836	63.8713	58.6811	5.4151	2.0000
25.3000	70.7674	63.8020	58.5691	5.4170	2.0000
25.4000	70.7511	63.7326	58.4571	5.4189	2.0000
25.5000	70.7349	63.6633	58.3452	5.4208	2.0000
25.6000	70.7186	63.5940	58.2332	5.4227	2.0000
25.7000	70.7024	63.5246	58.1212	5.4246	2.0000
25.8000	70.6861	63.4553	58.0092	5.4265	2.0000
25.9000	70.6699	63.3860	57.8972	5.4283	2.0000
26.0000	70.5794	63.2585	57.7052	5.4302	2.0000
26.1000	70.3866	63.0506	57.4026	5.4321	2.0000
26.2000	70.1937	62.8427	57.0999	5.4340	2.0000
26.3000	70.0009	62.6348	56.7973	5.4359	2.0000
26.4000	69.8080	62.4269	56.4946	5.4378	2.0000
26.5000	69.6152	62.2190	56.1920	5.4397	2.0000
26.6000	69.4223	62.0111	55.8893	5.4416	2.0000
26.7000	69.2295	61.8032	55.5867	5.4435	2.0000
26.8000	69.0366	61.5953	55.2841	5.4454	2.0000
26.9000	68.8438	61.3874	54.9814	5.4473	2.0000
27.0000	68.6509	61.1795	54.6788	5.4491	2.0000
27.1000	68.4581	60.9716	54.3761	5.4510	2.0000
27.2000	68.2997	60.8310	54.1352	5.4529	2.0000
27.3000	68.3224	61.0441	54.2182	5.4503	2.0000
27.4000	68.3451	61.2571	54.3011	5.4470	2.0000
27.5000	68.3678	61.4702	54.3841	5.4437	2.0000
27.6000	68.3905	61.6832	54.4671	5.4404	2.0000
27.7000	68.4132	61.8962	54.5501	5.4371	2.0000
27.8000	68.4359	62.1093	54.6330	5.4338	2.0000
27.9000	68.4586	62.3223	54.7160	5.4305	2.0000
28.0000	68.4813	62.5354	54.7990	5.4272	2.0000
28.1000	68.5040	62.7484	54.8820	5.4239	2.0000
28.2000	68.5267	62.9614	54.9650	5.4206	2.0000
28.3000	68.5494	63.1745	55.0479	5.4173	2.0000
28.4000	68.5721	63.3875	55.1309	5.4140	2.0000
28.5000	68.5164	63.4794	55.2334	5.4107	2.0000
28.6000	68.3992	63.4760	55.3513	5.4074	2.0000
28.7000	68.2819	63.4727	55.4692	5.4041	2.0000
28.8000	68.1646	63.4694	55.5871	5.4008	2.0000
28.9000	68.0473	63.4660	55.7050	5.3975	2.0000
29.0000	67.9301	63.4627	55.8229	5.3942	2.0000
29.1000	67.8128	63.4593	55.9408	5.3909	2.0000
29.2000	67.6955	63.4560	56.0587	5.3876	2.0000
29.3000	67.5782	63.4526	56.1766	5.3843	2.0000
29.4000	67.4609	63.4493	56.2945	5.3810	2.0000
29.5000	67.3437	63.4460	56.4124	5.3777	2.0000
29.6000	67.2264	63.4426	56.5303	5.3744	2.0000
29.7000	67.1091	63.4393	56.6482	5.3711	2.0000
29.8000	66.9677	63.3257	56.7280	5.3678	2.0000
29.9000	66.8258	63.2100	56.8071	5.3645	2.0000
30.0000	66.6839	63.0942	56.8862	5.3612	2.0000
30.1000	66.5420	62.9784	56.9653	5.3579	2.0000
30.2000	66.4001	62.8626	57.0444	5.3546	2.0000
30.3000	66.2581	62.7469	57.1235	5.3513	2.0000
30.4000	66.1162	62.6311	57.2026	5.3480	2.0000
30.5000	65.9743	62.5153	57.2817	5.3447	2.0000
30.6000	65.8324	62.3995	57.3608	5.3414	2.0000
30.7000	65.6905	62.2837	57.4399	5.3446	2.0000
30.8000	65.5486	62.1680	57.5190	5.3484	2.0000
30.9000	65.4067	62.0522	57.5980	5.3522	2.0000
31.0000	65.4639	62.2825	57.8817	5.3559	2.0000
31.1000	65.5339	62.5350	58.1785	5.3597	2.0000
31.2000	65.6039	62.7874	58.4752	5.3635	2.0000
31.3000	65.6739	63.0398	58.7720	5.3673	2.0000
31.4000	65.7438	63.2923	59.0687	5.3710	2.0000
31.5000	65.8138	63.5447	59.3655	5.3748	2.0000
31.6000	65.8838	63.7971	59.6622	5.3786	2.0000
31.7000	65.9537	64.0496	59.9590	5.3823	2.0000
31.8000	66.0237	64.3020	60.2558	5.3861	2.0000
31.9000	66.0937	64.5545	60.5525	5.3899	2.0000
32.0000	66.1637	64.8069	60.8493	5.3937	2.0000
32.1000	66.2336	65.0593	61.1460	5.3974	2.0000
32.2000	66.2322	65.1578	61.2861	5.4012	2.0000
32.3000	66.2083	65.2077	61.3767	5.4050	2.0000
32.4000	66.1843	65.2576	61.4672	5.4088	2.0000
32.5000	66.1604	65.3075	61.5578	5.4125	2.0000
32.6000	66.1364	65.3574	61.6484	5.4163	2.0000
32.7000	66.1125	65.4073	61.7390	5.4201	2.0000
32.8000	66.0885	65.4572	61.8296	5.4238	2.0000
32.9000	66.0646	65.5071	61.9202	5.4276	2.0000
33.0000	66.0406	65.5570	62.0108	5.4314	2.0000
33.1000	66.0167	65.6069	62.1013	5.4352	2.0000
33.2000	65.9927	65.6568	62.1919	5.4389	2.0000
33.3000	65.9688	65.7067	62.2825	5.4427	2.0000
33.4000	66.0117	65.7506	62.2771	5.4465	2.0000
33.5000	66.0923	65.7911	62.2178	5.4503	2.0000
33.6000	66.1729	65.8316	62.1584	5.4540	2.0000
33.7000	66.2534	65.8721	62.0990	5.4578	2.0000
33.8000	66.3340	65.9126	62.0397	5.4616	2.0000
33.9000	66.4146	65.9531	61.9803	5.4653	2.0000
34.0000	66.4952	65.9936	61.9210	5.4691	2.0000
34.1000	66.5757	66.0341	61.8616	5.4729	2.0000
34.2000	66.6563	66.0746	61.8022	5.4767	2.0000
34.3000	66.7369	66.1151	61.7429	5.4804	2.0000
34.4000	66.8175	66.1556	61.6835	5.4842	2.0000
34.5000	66.8980	66.1961	61.6241	5.4880	2.0000
34.6000	67.1433	66.4237	61.8553	5.4918	2.0000
34.7000	67.4154	66.6817	62.1339	5.4950	2.0000
34.8000	67.6875	66.9398	62.4124	5.4978	2.0000
34.9000	67.9596	67.1979	62.6909	5.5006	2.0000
35.0000	68.2316	67.4560	62.9694	5.5035	2.0000
35.1000	68.5037	67.7140	63.2479	5.5063	2.0000
35.2000	68.7758	67.9721	63.5264	5.5091	2.0000
35.3000	69.0479	68.2302	63.8049	5.5119	2.0000
35.4000	69.3200	68.4882	64.0834	5.5147	2.0000
35.5000	69.5921	68.7463	64.3619	5.5176	2.0000
35.6000	69.8641	69.0044	64.6404	5.5204	2.0000
35.7000	70.1362	69.2624	64.9189	5.5232	2.0000
35.8000	70.2192	69.2804	64.9423	5.5260	2.0000
35.9000	70.2132	69.1854	64.8456	5.5288	2.0000
36.0000	70.2072	69.0904	64.7489	5.5317	2.0000
36.1000	70.2013	68.9954	64.6522	5.5345	2.0000
36.2000	70.1953	68.9005	64.5555	5.5373	2.0000
36.3000	70.1893	68.8055	64.4587	5.5401	2.0000
36.4000	70.1833	68.7105	64.3620	5.5429	2.0000
36.5000	70.1773	68.6155	64.2653	5.5458	2.0000
36.6000	70.1713	68.5205	64.1686	5.5486	2.0000
36.7000	70.1654	68.4255	64.0719	5.5514	2.0000
36.8000	70.1594	68.3305	63.9752	5.5542	2.0000
36.9000	70.1534	68.2355	63.8785	5.5570	2.0000
37.0000	70.1047	68.0853	63.7558	5.5599	2.0000
37.1000	70.0224	67.8918	63.6127	5.5627	2.0000
37.2000	69.9401	67.6982	63.4695	5.5655	2.0000
37.3000	69.8579	67.5046	63.3264	5.5683	2.0000
37.4000	69.7756	67.3110	63.1833	5.5711	2.0000
37.5000	69.6933	67.1174	63.0402	5.5740	2.0000
37.6000	69.6111	66.9238	62.8971	5.5768	2.0000
37.7000	69.5288	66.7303	62.7539	5.5796	2.0000
37.8000	69.4465	66.5367	62.6108	5.5824	2.0000
37.9000	69.3643	66.3431	62.4677	5.5852	2.0000
38.0000	69.2820	66.1495	62.3246	5.5881	2.0000
38.1000	69.1997	65.9559	62.1815	5.5892	2.0000
38.2000	69.2438	65.9265	62.1478	5.5851	2.0000
38.3000	69.3322	65.9547	62.1526	5.5809	2.0000
38.4000	69.4206	65.9830	62.1573	5.5768	2.0000
38.5000	69.5090	66.0113	62.1621	5.5726	2.0000
38.6000	69.5975	66.0395	62.1669	5.5685	2.0000
38.7000	69.6859	66.0678	62.1717	5.5643	2.0000
38.8000	69.7743	66.0960	62.1764	5.5602	2.0000
38.9000	69.8627	66.1243	62.1812	5.5560	2.0000
39.0000	69.9511	66.1525	62.1860	5.5519	2.0000
39.1000	70.0395	66.1808	62.1908	5.5478	2.0000
39.2000	70.1280	66.2090	62.1955	5.5436	2.0000
39.3000	70.2164	66.2373	62.2003	5.5395	2.0000
39.4000	70.1688	66.1462	62.1154	5.5353	2.0000
39.5000	70.0145	65.9612	61.9600	5.5312	2.0000
39.6000	69.8601	65.7762	61.8046	5.5270	2.0000
39.7000	69.7057	65.5913	61.6492	5.5229	2.0000
39.8000	69.5514	65.4063	61.4938	5.5188	2.0000
39.9000	69.3970	65.2214	61.3383	5.5146	2.0000
40.0000	69.2426	65.0364	61.1829	5.5105	2.0000
40.1000	69.0882	64.8515	61.0275	5.5063	2.0000
40.2000	68.9339	64.6665	60.8721	5.5022	2.0000
40.3000	68.7795	64.4815	60.7167	5.4980	2.0000
40.4000	68.6251	64.2966	60.5613	5.4939	2.0000
40.5000	68.4708	64.1116	60.4059	5.4897	2.0000
40.6000	68.3288	63.9388	60.2755	5.4856	2.0000
40.7000	68.2107	63.7893	60.1936	5.4815	2.0000
40.8000	68.0927	63.6399	60.1117	5.4773	2.0000
40.9000	67.9747	63.4904	60.0298	5.4732	2.0000
41.0000	67.8566	63.3410	59.9479	5.4690	2.0000
41.1000	67.7386	63.1916	59.8660	5.4649	2.0000
41.2000	67.6206	63.0421	59.7841	5.4607	2.0000
41.3000	67.5026	62.8927	59.7022	5.4566	2.0000
41.4000	67.3845	62.7432	59.6203	5.4524	2.0000
41.5000	67.2665	62.5938	59.5384	5.4483	2.0000
41.6000	67.1485	62.4444	59.4565	5.4454	2.0000
41.7000	67.0304	62.2949	59.3746	5.4456	2.0000
41.8000	66.9988	62.3083	59.4452	5.4459	2.0000
41.9000	67.0685	62.5128	59.6947	5.4461	2.0000
42.0000	67.1383	62.7172	59.9442	5.4464	2.0000
42.1000	67.2080	62.9217	60.1937	5.4466	2.0000
42.2000	67.2777	63.1262	60.4431	5.4469	2.0000
42.3000	67.3474	63.3307	60.6926	5.4471	2.0000
42.4000	67.4172	63.5351	60.9421	5.4474	2.0000
42.5000	67.4869	63.7396	61.1916	5.4476	2.0000
42.6000	67.5566	63.9441	61.4411	5.4478	2.0000
42.7000	67.6264	64.1485	61.6906	5.4481	2.0000
42.8000	67.6961	64.3530	61.9401	5.4483	2.0000
42.9000	67.7658	64.5575	62.1896	5.4486	2.0000
43.0000	67.7424	64.6324	62.3337	5.4488	2.0000
43.1000	67.5902	64.5283	62.3325	5.4491	2.0000
43.2000	67.4379	64.4243	62.3313	5.4493	2.0000
43.3000	67.2857	64.3203	62.3301	5.4496	2.0000
43.4000	67.1335	64.2162	62.3289	5.4498	2.0000
43.5000	66.9813	64.1122	62.3277	5.4501	2.0000
43.6000	66.8291	64.0081	62.3265	5.4503	2.0000
43.7000	66.6769	63.9041	62.3253	5.4506	2.0000
43.8000	66.5247	63.8001	62.3241	5.4508	2.0000
43.9000	66.3725	63.6960	62.3229	5.4511	2.0000
44.0000	66.2202	63.5920	62.3217	5.4513	2.0000
44.1000	66.0680	63.4880	62.3205	5.4515	2.0000
44.2000	66.2277	63.7426	62.5405	5.4518	2.0000
44.3000	66.4072	64.0202	62.7746	5.4520	2.0000
44.4000	66.5868	64.2977	63.0087	5.4523	2.0000
44.5000	66.7663	64.5752	63.2429	5.4525	2.0000
44.6000	66.9459	64.8528	63.4770	5.4528	2.0000
44.7000	67.1254	65.1303	63.7111	5.4530	2.0000
44.8000	67.3050	65.4079	63.9453	5.4506	2.0000
44.9000	67.4845	65.6854	64.1794	5.4474	2.0000
45.0000	67.6640	65.9630	64.4135	5.4442	2.0000
45.1000	67.8436	66.2405	64.6477	5.4410	2.0000
45.2000	68.0231	66.5181	64.8818	5.4378	2.0000
45.3000	68.1955	66.7169	65.1094	5.4346	2.0000
45.4000	68.3578	66.8070	65.3282	5.4313	2.0000
45.5000	68.5202	66.8971	65.5469	5.4281	2.0000
45.6000	68.6825	66.9872	65.7656	5.4249	2.0000
45.7000	68.8448	67.0773	65.9843	5.4217	2.0000
45.8000	69.0072	67.1675	66.2030	5.4185	2.0000
45.9000	69.1695	67.2576	66.4217	5.4153	2.0000
46.0000	69.3319	67.3477	66.6404	5.4120	2.0000
46.1000	69.4942	67.4378	66.8591	5.4088	2.0000
46.2000	69.6566	67.5279	67.0778	5.4056	2.0000
46.3000	69.8189	67.6180	67.2965	5.4024	2.0000
46.4000	69.9813	67.7081	67.5152	5.3992	2.0000
46.5000	70.0504	67.7327	67.5744	5.3960	2.0000
46.6000	70.0756	67.7265	67.5585	5.3927	2.0000
46.7000	70.1008	67.7202	67.5427	5.3895	2.0000
46.8000	70.1261	67.7140	67.5268	5.3863	2.0000
46.9000	70.1513	67.7077	67.5109	5.3831	2.0000
47.0000	70.1766	67.7015	67.4951	5.3799	2.0000
47.1000	70.2018	67.6952	67.4792	5.3766	2.0000
47.2000	70.2270	67.6890	67.4633	5.3734	2.0000
47.3000	70.2523	67.6827	67.4475	5.3702	2.0000
47.4000	70.2775	67.6765	67.4316	5.3670	2.0000
47.5000	70.3027	67.6702	67.4157	5.3638	2.0000
47.6000	70.3581	67.6857	67.4183	5.3606	2.0000
47.7000	70.5717	67.8156	67.5178	5.3573	2.0000
47.8000	70.7854	67.9454	67.6173	5.3541	2.0000
47.9000	70.9990	68.0753	67.7168	5.3509	2.0000
48.0000	71.2126	68.2052	67.8163	5.3501	2.0000
48.1000	71.4262	68.3350	67.9157	5.3498	2.0000
48.2000	71.6398	68.4649	68.0152	5.3495	2.0000
48.3000	71.8535	68.5947	68.1147	5.3493	2.0000
48.4000	72.0671	68.7246	68.2142	5.3490	2.0000
48.5000	72.2807	68.8544	68.3137	5.3487	2.0000
48.6000	72.4943	68.9843	68.4131	5.3484	2.0000
48.7000	72.7079	69.1142	68.5126	5.3481	2.0000
48.8000	72.9216	69.2440	68.6121	5.3478	2.0000
48.9000	72.8569	69.1533	68.4878	5.3475	2.0000
49.0000	72.7745	69.0485	68.3493	5.3472	2.0000
49.1000	72.6922	68.9437	68.2107	5.3469	2.0000
49.2000	72.6098	68.8390	68.0721	5.3466	2.0000
49.3000	72.5274	68.7342	67.9336	5.3463	2.0000
49.4000	72.4450	68.6294	67.7950	5.3460	2.0000
49.5000	72.3626	68.5246	67.6565	5.3457	2.0000
49.6000	72.2802	68.4198	67.5179	5.3454	2.0000
49.7000	72.1978	68.3151	67.3793	5.3451	2.0000
49.8000	72.1154	68.2103	67.2408	5.3448	2.0000
49.9000	72.0331	68.1055	67.1022	5.3445	2.0000
50.0000	71.9507	68.0007	66.9637	5.3442	2.0000
50.1000	71.8363	67.8695	66.7519	5.3439	2.0000
50.2000	71.7024	67.7220	66.4953	5.3436	2.0000
50.3000	71.5685	67.5746	66.2386	5.3433	2.0000
50.4000	71.4346	67.4271	65.9820	5.3430	2.0000
50.5000	71.3007	67.2797	65.7253	5.3427	2.0000
50.6000	71.1668	67.1322	65.4687	5.3424	2.0000
50.7000	71.0329	66.9848	65.2120	5.3421	2.0000
50.8000	70.8989	66.8373	64.9554	5.3418	2.0000
50.9000	70.7650	66.6899	64.6988	5.3415	2.0000
51.0000	70.6311	66.5424	64.4421	5.3412	2.0000
51.1000	70.4972	66.3950	64.1855	5.3437	2.0000
51.2000	70.3633	66.2475	63.9288	5.3473	2.0000
51.3000	70.2783	66.1950	63.8246	5.3509	2.0000
51.4000	70.2462	66.2453	63.8856	5.3545	2.0000
51.5000	70.2141	66.2956	63.9466	5.3581	2.0000
51.6000	70.1820	66.3459	64.0075	5.3617	2.0000
51.7000	70.1499	66.3962	64.0685	5.3653	2.0000
51.8000	70.1179	66.4466	64.1294	5.3689	2.0000
51.9000	70.0858	66.4969	64.1904	5.3725	2.0000
52.0000	70.0537	66.5472	64.2513	5.3760	2.0000
52.1000	70.0216	66.5975	64.3123	5.3796	2.0000
52.2000	69.9896	66.6478	64.3733	5.3832	2.0000
52.3000	69.9575	66.6981	64.4342	5.3868	2.0000
52.4000	69.9254	66.7484	64.4952	5.3904	2.0000
52.5000	69.8933	66.7987	64.5561	5.3940	2.0000
52.6000	69.6915	66.6585	64.3217	5.3976	2.0000
52.7000	69.4789	66.5062	64.0684	5.4012	2.0000
52.8000	69.2662	66.3538	63.8151	5.4048	2.0000
52.9000	69.0536	66.2015	63.5618	5.4084	2.0000
53.0000	68.8409	66.0491	63.3084	5.4120	2.0000
53.1000	68.6283	65.8968	63.0551	5.4156	2.0000
53.2000	68.4156	65.7445	62.8018	5.4192	2.0000
53.3000	68.2030	65.5921	62.5485	5.4228	2.0000
53.4000	67.9903	65.4398	62.2952	5.4264	2.0000
53.5000	67.7776	65.2874	62.0419	5.4300	2.0000
53.6000	67.5650	65.1351	61.7886	5.4336	2.0000
53.7000	67.3656	64.9941	61.5478	5.4372	2.0000
53.8000	67.4834	65.1265	61.6083	5.4408	2.0000
53.9000	67.6012	65.2588	61.6688	5.4444	2.0000
54.0000	67.7191	65.3912	61.7292	5.4480	2.0000
54.1000	67.8369	65.5235	61.7897	5.4516	2.0000
54.2000	67.9548	65.6559	61.8502	5.4552	2.0000
54.3000	68.0726	65.7883	61.9106	5.4585	2.0000
54.4000	68.1905	65.9206	61.9711	5.4550	2.0000
54.5000	68.3083	66.0530	62.0316	5.4516	2.0000
54.6000	68.4261	66.1853	62.0920	5.4482	2.0000
54.7000	68.5440	66.3177	62.1525	5.4447	2.0000
54.8000	68.6618	66.4500	62.2130	5.4413	2.0000
54.9000	68.7884	66.5938	62.2658	5.4379	2.0000
55.0000	68.9457	66.7782	62.2918	5.4344	2.0000
55.1000	69.1031	66.9626	62.3177	5.4310	2.0000
55.2000	69.2605	67.1469	62.3436	5.4275	2.0000
55.3000	69.4179	67.3313	62.3695	5.4241	2.0000
55.4000	69.5752	67.5157	62.3955	5.4207	2.0000
55.5000	69.7326	67.7000	62.4214	5.4172	2.0000
55.6000	69.8900	67.8844	62.4473	5.4138	2.0000
55.7000	70.0473	68.0687	62.4733	5.4103	2.0000
55.8000	70.2047	68.2531	62.4992	5.4069	2.0000
55.9000	70.3621	68.4375	62.5251	5.4035	2.0000
56.0000	70.5195	68.6218	62.5510	5.4000	2.0000
56.1000	70.6168	68.7510	62.5655	5.3966	2.0000
56.2000	70.5595	68.7384	62.5505	5.3932	2.0000
56.3000	70.5023	68.7258	62.5356	5.3897	2.0000
56.4000	70.4451	68.7132	62.5206	5.3863	2.0000
56.5000	70.3879	68.7006	62.5056	5.3828	2.0000
56.6000	70.3307	68.6880	62.4906	5.3794	2.0000
56.7000	70.2735	68.6754	62.4757	5.3760	2.0000
56.8000	70.2163	68.6628	62.4607	5.3725	2.0000
56.9000	70.1590	68.6501	62.4457	5.3691	2.0000
57.0000	70.1018	68.6375	62.4307	5.3656	2.0000
57.1000	70.0446	68.6249	62.4158	5.3622	2.0000
57.2000	69.9874	68.6123	62.4008	5.3588	2.0000
57.3000	70.0917	68.7442	62.5044	5.3553	2.0000
57.4000	70.2471	68.9216	62.6455	5.3519	2.0000
57.5000	70.4025	69.0991	62.7866	5.3485	2.0000
57.6000	70.5579	69.2766	62.9278	5.3451	2.0000
57.7000	70.7132	69.4540	63.0689	5.3446	2.0000
57.8000	70.8686	69.6315	63.2100	5.3441	2.0000
57.9000	71.0240	69.8089	63.3511	5.3436	2.0000
58.0000	71.1794	69.9864	63.4922	5.3431	2.0000
58.1000	71.3347	70.1639	63.6333	5.3425	2.0000
58.2000	71.4901	70.3413	63.7744	5.3420	2.0000
58.3000	71.6455	70.5188	63.9155	5.3415	2.0000
58.4000	71.8008	70.6963	64.0566	5.3410	2.0000
58.5000	71.7830	70.6328	64.1204	5.3404	2.0000
58.6000	71.7459	70.5425	64.1756	5.3399	2.0000
58.7000	71.7088	70.4523	64.2308	5.3394	2.0000
58.8000	71.6717	70.3620	64.2860	5.3389	2.0000
58.9000	71.6347	70.2718	64.3412	5.3384	2.0000
59.0000	71.5976	70.1815	64.3964	5.3378	2.0000
59.1000	71.5605	70.0912	64.4516	5.3373	2.0000
59.2000	71.5234	70.0010	64.5068	5.3368	2.0000
59.3000	71.4863	69.9107	64.5620	5.3363	2.0000
59.4000	71.4492	69.8205	64.6172	5.3358	2.0000
59.5000	71.4121	69.7302	64.6724	5.3352	2.0000
59.6000	71.3750	69.6400	64.7277	5.3347	2.0000
59.7000	71.2244	69.4968	64.5958	5.3342	2.0000
59.8000	71.0338	69.3351	64.3981	5.3337	2.0000
59.9000	70.8432	69.1734	64.2005	5.3332	2.0000
60.0000	70.6527	69.0117	64.0028	5.3326	2.0000
60.1000	70.4621	68.8500	63.8052	5.3321	2.0000
60.2000	70.2715	68.6883	63.6076	5.3316	2.0000
60.3000	70.0809	68.5266	63.4099	5.3311	2.0000
60.4000	69.8904	68.3649	63.2123	5.3306	2.0000
60.5000	69.6998	68.2032	63.0146	5.3300	2.0000
60.6000	69.5092	68.0415	62.8170	5.3295	2.0000
60.7000	69.3187	67.8798	62.6193	5.3290	2.0000
60.8000	69.1281	67.7181	62.4217	5.3285	2.0000
60.9000	69.1564	67.6789	62.4438	5.3279	2.0000
61.0000	69.2264	67.6631	62.5077	5.3274	2.0000
61.1000	69.2964	67.6473	62.5716	5.3282	2.0000
61.2000	69.3664	67.6315	62.6355	5.3301	2.0000
61.3000	69.4364	67.6157	62.6994	5.3320	2.0000
61.4000	69.5064	67.5999	62.7633	5.3340	2.0000
61.5000	69.5763	67.5841	62.8272	5.3359	2.0000
61.6000	69.6463	67.5683	62.8912	5.3378	2.0000
61.7000	69.7163	67.5525	62.9551	5.3397	2.0000
61.8000	69.7863	67.5367	63.0190	5.3417	2.0000
61.9000	69.8563	67.5209	63.0829	5.3436	2.0000
62.0000	69.9263	67.5051	63.1468	5.3455	2.0000
62.1000	69.9066	67.4144	63.0403	5.3474	2.0000
62.2000	69.8104	67.2598	62.7886	5.3494	2.0000
62.3000	69.7142	67.1052	62.5369	5.3513	2.0000
62.4000	69.6180	66.9507	62.2852	5.3532	2.0000
62.5000	69.5218	66.7961	62.0335	5.3552	2.0000
62.6000	69.4256	66.6416	61.7818	5.3571	2.0000
62.7000	69.3295	66.4870	61.5301	5.3590	2.0000
62.8000	69.2333	66.3324	61.2783	5.3609	2.0000
62.9000	69.1371	66.1779	61.0266	5.3629	2.0000
63.0000	69.0409	66.0233	60.7749	5.3648	2.0000
63.1000	68.9447	65.8687	60.5232	5.3667	2.0000
63.2000	68.8485	65.7142	60.2715	5.3686	2.0000
63.3000	68.7456	65.5255	60.0566	5.3706	2.0000
63.4000	68.6284	65.2642	59.9196	5.3725	2.0000
63.5000	68.5113	65.0030	59.7827	5.3744	2.0000
63.6000	68.3941	64.7418	59.6458	5.3763	2.0000
63.7000	68.2769	64.4805	59.5089	5.3783	2.0000
63.8000	68.1597	64.2193	59.3719	5.3802	2.0000
63.9000	68.0425	63.9580	59.2350	5.3821	2.0000
64.0000	67.9253	63.6968	59.0981	5.3841	2.0000
64.1000	67.8082	63.4356	58.9612	5.3860	2.0000
64.2000	67.6910	63.1743	58.8242	5.3879	2.0000
64.3000	67.5738	62.9131	58.6873	5.3898	2.0000
64.4000	67.4566	62.6519	58.5504	5.3898	2.0000
64.5000	67.4315	62.5803	58.5694	5.3881	2.0000
64.6000	67.5334	62.7708	58.8039	5.3865	2.0000
64.7000	67.6354	62.9612	59.0383	5.3848	2.0000
64.8000	67.7374	63.1517	59.2728	5.3832	2.0000
64.9000	67.8393	63.3421	59.5072	5.3815	2.0000
65.0000	67.9413	63.5325	59.7417	5.3799	2.0000
65.1000	68.0432	63.7230	59.9761	5.3782	2.0000
65.2000	68.1452	63.9134	60.2106	5.3766	2.0000
65.3000	68.2472	64.1039	60.4450	5.3749	2.0000
65.4000	68.3491	64.2943	60.6795	5.3733	2.0000
65.5000	68.4511	64.4847	60.9139	5.3716	2.0000
65.6000	68.5531	64.6752	61.1484	5.3700	2.0000
65.7000	68.5930	64.7923	61.2844	5.3683	2.0000
65.8000	68.4367	64.6774	61.1089	5.3667	2.0000
65.9000	68.2804	64.5624	60.9333	5.3651	2.0000
66.0000	68.1241	64.4475	60.7578	5.3634	2.0000
66.1000	67.9678	64.3325	60.5823	5.3618	2.0000
66.2000	67.8115	64.2175	60.4067	5.3601	2.0000
66.3000	67.6552	64.1026	60.2312	5.3585	2.0000
66.4000	67.4989	63.9876	60.0556	5.3568	2.0000
66.5000	67.3426	63.8727	59.8801	5.3552	2.0000
66.6000	67.1863	63.7577	59.7046	5.3535	2.0000
66.7000	67.0300	63.6427	59.5290	5.3519	2.0000
66.8000	66.8737	63.5278	59.3535	5.3502	2.0000
66.9000	66.7573	63.4735	59.2490	5.3486	2.0000
67.0000	66.7339	63.5609	59.3101	5.3469	2.0000
67.1000	66.7106	63.6483	59.3713	5.3453	2.0000
67.2000	66.6872	63.7357	59.4325	5.3436	2.0000
67.3000	66.6638	63.8231	59.4937	5.3420	2.0000
67.4000	66.6405	63.9105	59.5549	5.3404	2.0000
67.5000	66.6171	63.9979	59.6161	5.3387	2.0000
67.6000	66.5937	64.0853	59.6773	5.3371	2.0000
67.7000	66.5703	64.1727	59.7384	5.3354	2.0000
67.8000	66.5470	64.2601	59.7996	5.3373	2.0000
67.9000	66.5236	64.3475	59.8608	5.3408	2.0000
68.0000	66.5002	64.4349	59.9220	5.3444	2.0000
68.1000	66.5537	64.6088	60.0747	5.3479	2.0000
68.2000	66.6727	64.8564	60.3053	5.3514	2.0000
68.3000	66.7916	65.1040	60.5360	5.3550	2.0000
68.4000	66.9106	65.3516	60.7666	5.3585	2.0000
68.5000	67.0296	65.5993	60.9973	5.3620	2.0000
68.6000	67.1485	65.8469	61.2279	5.3655	2.0000
68.7000	67.2675	66.0945	61.4585	5.3691	2.0000
68.8000	67.3864	66.3421	61.6892	5.3726	2.0000
68.9000	67.5054	66.5897	61.9198	5.3761	2.0000
69.0000	67.6243	66.8373	62.1505	5.3797	2.0000
69.1000	67.7433	67.0849	62.3811	5.3832	2.0000
69.2000	67.8622	67.3325	62.6118	5.3867	2.0000
69.3000	67.8880	67.4293	62.6813	5.3903	2.0000
69.4000	67.8985	67.5014	62.7245	5.3938	2.0000
69.5000	67.9091	67.5736	62.7678	5.3973	2.0000
69.6000	67.9196	67.6457	62.8110	5.4009	2.0000
69.7000	67.9302	67.7179	62.8543	5.4044	2.0000
69.8000	67.9407	67.7900	62.8975	5.4079	2.0000
69.9000	67.9513	67.8621	62.9408	5.4115	2.0000
70.0000	67.9618	67.9343	62.9840	5.4150	2.0000
70.1000	67.9724	68.0064	63.0273	5.4185	2.0000
70.2000	67.9829	68.0786	63.0706	5.4221	2.0000
70.3000	67.9935	68.1507	63.1138	5.4256	2.0000
70.4000	68.1437	68.3100	63.2361	5.4291	2.0000
70.5000	68.4337	68.5563	63.4374	5.4327	2.0000
70.6000	68.7236	68.8026	63.6387	5.4362	2.0000
70.7000	69.0135	69.0489	63.8401	5.4397	2.0000
70.8000	69.3035	69.2953	64.0414	5.4400	2.0000
70.9000	69.5934	69.5416	64.2427	5.4367	2.0000
71.0000	69.8834	69.7879	64.4440	5.4334	2.0000
71.1000	70.1733	70.0342	64.6454	5.4301	2.0000
71.2000	70.4632	70.2805	64.8467	5.4269	2.0000
71.3000	70.7532	70.5269	65.0480	5.4236	2.0000
71.4000	71.0431	70.7732	65.2493	5.4203	2.0000
71.5000	71.3330	71.0195	65.4507	5.4170	2.0000
71.6000	71.5234	71.0948	65.5970	5.4138	2.0000
71.7000	71.6059	70.9849	65.6839	5.4105	2.0000
71.8000	71.6883	70.8750	65.7708	5.4072	2.0000
71.9000	71.7708	70.7651	65.8577	5.4039	2.0000
72.0000	71.8533	70.6552	65.9445	5.4007	2.0000
72.1000	71.9358	70.5453	66.0314	5.3974	2.0000
72.2000	72.0182	70.4353	66.1183	5.3941	2.0000
72.3000	72.1007	70.3254	66.2052	5.3908	2.0000
72.4000	72.1832	70.2155	66.2920	5.3875	2.0000
72.5000	72.2656	70.1056	66.3789	5.3843	2.0000
72.6000	72.3481	69.9957	66.4658	5.3810	2.0000
72.7000	72.4306	69.8858	66.5527	5.3777	2.0000
72.8000	72.4951	69.7503	66.5648	5.3744	2.0000
72.9000	72.4877	69.5126	66.2780	5.3712	2.0000
73.0000	72.4803	69.2750	65.9911	5.3679	2.0000
73.1000	72.4729	69.0373	65.7043	5.3646	2.0000
73.2000	72.4655	68.7997	65.4175	5.3613	2.0000
73.3000	72.4581	68.5620	65.1306	5.3581	2.0000
73.4000	72.4508	68.3244	64.8438	5.3548	2.0000
73.5000	72.4434	68.0867	64.5570	5.3515	2.0000
73.6000	72.4360	67.8490	64.2701	5.3482	2.0000
73.7000	72.4286	67.6114	63.9833	5.3449	2.0000
73.8000	72.4212	67.3737	63.6965	5.3417	2.0000
73.9000	72.4138	67.1361	63.4096	5.3384	2.0000
74.0000	72.4412	66.9473	63.1994	5.3351	2.0000
74.1000	72.5497	66.8727	63.1680	5.3318	2.0000
74.2000	72.6582	66.7980	63.1365	5.3324	2.0000
74.3000	72.7667	66.7233	63.1051	5.3359	2.0000
74.4000	72.8752	66.6487	63.0736	5.3395	2.0000
74.5000	72.9838	66.5740	63.0422	5.3430	2.0000
74.6000	73.0923	66.4994	63.0107	5.3465	2.0000
74.7000	73.2008	66.4247	62.9793	5.3501	2.0000
74.8000	73.3093	66.3501	62.9479	5.3536	2.0000
74.9000	73.4178	66.2754	62.9164	5.3572	2.0000
75.0000	73.5263	66.2007	62.8850	5.3607	2.0000
75.1000	73.6348	66.1261	62.8535	5.3642	2.0000
75.2000	73.7433	66.0514	62.8221	5.3678	2.0000
75.3000	73.6273	65.8388	62.5717	5.3713	2.0000
75.4000	73.4746	65.6037	62.2857	5.3749	2.0000
75.5000	73.3220	65.3686	61.9997	5.3784	2.0000
75.6000	73.1694	65.1335	61.7137	5.3820	2.0000
75.7000	73.0167	64.8983	61.4277	5.3855	2.0000
75.8000	72.8641	64.6632	61.1417	5.3890	2.0000
75.9000	72.7115	64.4281	60.8557	5.3926	2.0000
76.0000	72.5588	64.1930	60.5697	5.3961	2.0000
76.1000	72.4062	63.9579	60.2837	5.3997	2.0000
76.2000	72.2536	63.7228	59.9977	5.4032	2.0000
76.3000	72.1009	63.4877	59.7117	5.4067	2.0000
76.4000	71.9483	63.2526	59.4257	5.4103	2.0000
76.5000	71.7565	63.0142	59.1898	5.4138	2.0000
76.6000	71.5254	62.7725	59.0042	5.4174	2.0000
76.7000	71.2944	62.5307	58.8185	5.4209	2.0000
76.8000	71.0633	62.2890	58.6328	5.4245	2.0000
76.9000	70.8323	62.0473	58.4471	5.4280	2.0000
77.0000	70.6013	61.8056	58.2615	5.4315	2.0000
77.1000	70.3702	61.5639	58.0758	5.4351	2.0000
77.2000	70.1392	61.3222	57.8901	5.4386	2.0000
77.3000	69.9081	61.0805	57.7045	5.4422	2.0000
77.4000	69.6771	60.8387	57.5188	5.4457	2.0000
77.5000	69.4461	60.5970	57.3331	5.4413	2.0000
77.6000	69.2150	60.3553	57.1474	5.4324	2.0000
77.7000	69.0894	60.3482	57.1456	5.4235	2.0000
77.8000	69.1093	60.6652	57.3977	5.4147	2.0000
77.9000	69.1292	60.9821	57.6498	5.4058	2.0000
78.0000	69.1491	61.2991	57.9018	5.3969	2.0000
78.1000	69.1690	61.6160	58.1539	5.3880	2.0000
78.2000	69.1889	61.9329	58.4060	5.3792	2.0000
78.3000	69.2088	62.2499	58.6580	5.3703	2.0000
78.4000	69.2287	62.5668	58.9101	5.3614	2.0000
78.5000	69.2486	62.8838	59.1622	5.3525	2.0000
78.6000	69.2685	63.2007	59.4142	5.3437	2.0000
78.7000	69.2884	63.5176	59.6663	5.3348	2.0000
78.8000	69.3083	63.8346	59.9184	5.3259	2.0000
78.9000	69.3098	64.1120	60.1483	5.3170	2.0000
79.0000	69.1453	64.0337	60.1789	5.3082	2.0000
79.1000	68.9808	63.9554	60.2096	5.2993	2.0000
79.2000	68.8163	63.8770	60.2403	5.2904	2.0000
79.3000	68.6518	63.7987	60.2709	5.2815	2.0000
79.4000	68.4873	63.7204	60.3016	5.2727	2.0000
79.5000	68.3228	63.6421	60.3323	5.2638	2.0000
79.6000	68.1583	63.5637	60.3629	5.2549	2.0000
79.7000	67.9938	63.4854	60.3936	5.2460	2.0000
79.8000	67.8293	63.4071	60.4243	5.2371	2.0000
79.9000	67.6648	63.3288	60.4549	5.2283	2.0000
80.0000	67.5004	63.2504	60.4856	5.2194	2.0000
80.1000	67.4274	63.2557	60.5852	5.2105	2.0000
80.2000	67.5323	63.4234	60.8187	5.2016	2.0000
80.3000	67.6371	63.5910	61.0522	5.1928	2.0000
80.4000	67.7419	63.7587	61.2857	5.1839	2.0000
80.5000	67.8467	63.9263	61.5192	5.1833	2.0000
80.6000	67.9516	64.0940	61.7526	5.1848	2.0000
80.7000	68.0564	64.2616	61.9861	5.1863	2.0000
80.8000	68.1612	64.4293	62.2196	5.1878	2.0000
80.9000	68.2661	64.5969	62.4531	5.1893	2.0000
81.0000	68.3709	64.7645	62.6866	5.1908	2.0000
81.1000	68.4757	64.9322	62.9201	5.1923	2.0000
81.2000	68.5805	65.0998	63.1536	5.1938	2.0000
81.3000	68.6579	65.2171	63.3162	5.1952	2.0000
81.4000	68.7004	65.2702	63.3885	5.1967	2.0000
81.5000	68.7429	65.3233	63.4609	5.1982	2.0000
81.6000	68.7854	65.3764	63.5333	5.1997	2.0000
81.7000	68.8279	65.4295	63.6057	5.2012	2.0000
81.8000	68.8704	65.4826	63.6781	5.2027	2.0000
81.9000	68.9129	65.5357	63.7505	5.2042	2.0000
82.0000	68.9554	65.5888	63.8228	5.2057	2.0000
82.1000	68.9979	65.6419	63.8952	5.2072	2.0000
82.2000	69.0404	65.6950	63.9676	5.2087	2.0000
82.3000	69.0829	65.7482	64.0400	5.2102	2.0000
82.4000	69.1254	65.8013	64.1124	5.2117	2.0000
82.5000	69.1519	65.7597	64.0986	5.2131	2.0000
82.6000	69.1582	65.5976	63.9752	5.2146	2.0000
82.7000	69.1645	65.4355	63.8518	5.2161	2.0000
82.8000	69.1707	65.2734	63.7284	5.2176	2.0000
82.9000	69.1770	65.1113	63.6049	5.2191	2.0000
83.0000	69.1832	64.9491	63.4815	5.2206	2.0000
83.1000	69.1895	64.7870	63.3581	5.2221	2.0000
83.2000	69.1958	64.6249	63.2347	5.2236	2.0000
83.3000	69.2020	64.4628	63.1113	5.2251	2.0000
83.4000	69.2083	64.3007	62.9878	5.2266	2.0000
83.5000	69.2146	64.1386	62.8644	5.2281	2.0000
83.6000	69.2208	63.9765	62.7410	5.2299	2.0000
83.7000	69.4044	64.0814	62.8891	5.2328	2.0000
83.8000	69.6035	64.2094	63.0609	5.2358	2.0000
83.9000	69.8025	64.3375	63.2326	5.2387	2.0000
84.0000	70.0015	64.4656	63.4044	5.2416	2.0000
84.1000	70.2006	64.5936	63.5762	5.2446	2.0000
84.2000	70.3996	64.7217	63.7479	5.2475	2.0000
84.3000	70.5986	64.8498	63.9197	5.2504	2.0000
84.4000	70.7977	64.9778	64.0914	5.2533	2.0000
84.5000	70.9967	65.1059	64.2632	5.2563	2.0000
84.6000	71.1957	65.2340	64.4349	5.2592	2.0000
84.7000	71.3948	65.3620	64.6067	5.2621	2.0000
84.8000	71.5938	65.4901	64.7784	5.2651	2.0000
84.9000	71.5987	65.3984	64.6974	5.2680	2.0000
85.0000	71.5665	65.2649	64.5682	5.2709	2.0000
85.1000	71.5344	65.1314	64.4390	5.2738	2.0000
85.2000	71.5023	64.9978	64.3098	5.2768	2.0000
85.3000	71.4701	64.8643	64.1806	5.2797	2.0000
85.4000	71.4380	64.7307	64.0514	5.2826	2.0000
85.5000	71.4059	64.5972	63.9222	5.2856	2.0000
85.6000	71.3738	64.4637	63.7929	5.2885	2.0000
85.7000	71.3416	64.3301	63.6637	5.2914	2.0000
85.8000	71.3095	64.1966	63.5345	5.2944	2.0000
85.9000	71.2774	64.0630	63.4053	5.2973	2.0000
86.0000	71.2452	63.9295	63.2761	5.3002	2.0000
86.1000	71.1122	63.8438	63.0780	5.3031	2.0000
86.2000	70.9540	63.7700	62.8625	5.3061	2.0000
86.3000	70.7958	63.6963	62.6471	5.3090	2.0000
86.4000	70.6376	63.6225	62.4317	5.3119	2.0000
86.5000	70.4794	63.5488	62.2163	5.3149	2.0000
86.6000	70.3211	63.4750	62.0009	5.3178	2.0000
86.7000	70.1629	63.4013	61.7855	5.3207	2.0000
86.8000	70.0047	63.3275	61.5700	5.3236	2.0000
86.9000	69.8465	63.2538	61.3546	5.3266	2.0000
87.0000	69.6882	63.1800	61.1392	5.3295	2.0000
87.1000	69.5300	63.1063	60.9238	5.3308	2.0000
87.2000	69.3718	63.0325	60.7084	5.3277	2.0000
87.3000	69.3732	63.1136	60.7806	5.3247	2.0000
87.4000	69.3813	63.2012	60.8648	5.3217	2.0000
87.5000	69.3893	63.2887	60.9490	5.3186	2.0000
87.6000	69.3974	63.3763	61.0332	5.3156	2.0000
87.7000	69.4055	63.4638	61.1175	5.3126	2.0000
87.8000	69.4135	63.5514	61.2017	5.3095	2.0000
87.9000	69.4216	63.6389	61.2859	5.3065	2.0000
88.0000	69.4297	63.7265	61.3701	5.3035	2.0000
88.1000	69.4377	63.8140	61.4543	5.3004	2.0000
88.2000	69.4458	63.9016	61.5385	5.2974	2.0000
88.3000	69.4538	63.9891	61.6228	5.2944	2.0000
88.4000	69.4619	64.0767	61.7070	5.2913	2.0000
88.5000	69.2990	64.0386	61.5710	5.2883	2.0000
88.6000	69.0400	63.9298	61.3112	5.2852	2.0000
88.7000	68.7810	63.8210	61.0514	5.2822	2.0000
88.8000	68.5220	63.7122	60.7916	5.2792	2.0000
88.9000	68.2630	63.6034	60.5317	5.2761	2.0000
89.0000	68.0040	63.4946	60.2719	5.2731	2.0000
89.1000	67.7450	63.3858	60.0121	5.2701	2.0000
89.2000	67.4860	63.2770	59.7523	5.2670	2.0000
89.3000	67.2270	63.1682	59.4925	5.2640	2.0000
89.4000	66.9680	63.0594	59.2327	5.2610	2.0000
89.5000	66.7090	62.9506	58.9729	5.2579	2.0000
89.6000	66.4500	62.8418	58.7130	5.2549	2.0000
89.7000	66.3682	62.7855	58.6026	5.2519	2.0000
89.8000	66.3862	62.7587	58.5761	5.2488	2.0000
89.9000	66.4041	62.7319	58.5496	5.2458	2.0000
90.0000	66.4221	62.7050	58.5232	5.2428	2.0000
90.1000	66.4400	62.6782	58.4967	5.2397	2.0000
90.2000	66.4580	62.6514	58.4702	5.2367	2.0000
90.3000	66.4759	62.6246	58.4438	5.2354	2.0000
90.4000	66.4938	62.5978	58.4173	5.2367	2.0000
90.5000	66.5118	62.5710	58.3908	5.2379	2.0000
90.6000	66.5297	62.5442	58.3643	5.2392	2.0000
90.7000	66.5477	62.5174	58.3379	5.2405	2.0000
90.8000	66.5656	62.4905	58.3114	5.2418	2.0000
90.9000	66.5142	62.4372	58.1994	5.2431	2.0000
91.0000	66.4164	62.3662	58.0303	5.2443	2.0000
91.1000	66.3187	62.2951	57.8612	5.2456	2.0000
91.2000	66.2209	62.2241	57.6921	5.2469	2.0000
91.3000	66.1232	62.1531	57.5231	5.2482	2.0000
91.4000	66.0255	62.0820	57.3540	5.2495	2.0000
91.5000	65.9277	62.0110	57.1849	5.2507	2.0000
91.6000	65.8300	61.9400	57.0159	5.2520	2.0000
91.7000	65.7323	61.8689	56.8468	5.2533	2.0000
91.8000	65.6345	61.7979	56.6777	5.2546	2.0000
91.9000	65.5368	61.7269	56.5086	5.2559	2.0000
92.0000	65.4390	61.6558	56.3396	5.2571	2.0000
92.1000	65.3083	61.5437	56.1833	5.2584	2.0000
92.2000	65.1190	61.3585	56.0498	5.2597	2.0000
92.3000	64.9296	61.1732	55.9163	5.2610	2.0000
92.4000	64.7403	60.9880	55.7827	5.2622	2.0000
92.5000	64.5510	60.8028	55.6492	5.2635	2.0000
92.6000	64.3616	60.6176	55.5157	5.2648	2.0000
92.7000	64.1723	60.4324	55.3822	5.2661	2.0000
92.8000	63.9829	60.2472	55.2487	5.2674	2.0000
92.9000	63.7936	60.0619	55.1152	5.2686	2.0000
93.0000	63.6042	59.8767	54.9816	5.2699	2.0000
93.1000	63.4149	59.6915	54.8481	5.2712	2.0000
93.2000	63.2256	59.5063	54.7146	5.2725	2.0000
93.3000	63.1793	59.4843	54.8474	5.2738	2.0000
93.4000	63.2454	59.5904	55.1894	5.2760	2.0000
93.5000	63.3116	59.6966	55.5314	5.2791	2.0000
93.6000	63.3777	59.8028	55.8734	5.2822	2.0000
93.7000	63.4439	59.9090	56.2154	5.2853	2.0000
93.8000	63.5100	60.0151	56.5575	5.2884	2.0000
93.9000	63.5761	60.1213	56.8995	5.2915	2.0000
94.0000	63.6423	60.2275	57.2415	5.2946	2.0000
94.1000	63.7084	60.3336	57.5835	5.2977	2.0000
94.2000	63.7746	60.4398	57.9255	5.3008	2.0000
94.3000	63.8407	60.5460	58.2675	5.3039	2.0000
94.4000	63.9069	60.6522	58.6096	5.3070	2.0000
94.5000	63.8806	60.7150	58.7085	5.3101	2.0000
94.6000	63.7873	60.7465	58.6316	5.3132	2.0000
94.7000	63.6941	60.7780	58.5546	5.3163	2.0000
94.8000	63.6008	60.8095	58.4776	5.3194	2.0000
94.9000	63.5076	60.8410	58.4006	5.3225	2.0000
95.0000	63.4143	60.8725	58.3236	5.3256	2.0000
95.1000	63.3211	60.9040	58.2467	5.3287	2.0000
95.2000	63.2279	60.9355	58.1697	5.3318	2.0000
95.3000	63.1346	60.9670	58.0927	5.3349	2.0000
95.4000	63.0414	60.9985	58.0157	5.3379	2.0000
95.5000	62.9481	61.0300	57.9387	5.3410	2.0000
95.6000	62.8549	61.0615	57.8618	5.3441	2.0000
95.7000	62.7916	61.0275	57.8096	5.3472	2.0000
95.8000	62.7467	60.9533	57.7727	5.3503	2.0000
95.9000	62.7018	60.8791	57.7358	5.3534	2.0000
96.0000	62.6569	60.8049	57.6989	5.3565	2.0000
96.1000	62.6120	60.7307	57.6620	5.3596	2.0000
96.2000	62.5671	60.6565	57.6251	5.3627	2.0000
96.3000	62.5222	60.5823	57.5882	5.3658	2.0000
96.4000	62.4773	60.5081	57.5513	5.3689	2.0000
96.5000	62.4324	60.4339	57.5144	5.3720	2.0000
96.6000	62.3875	60.3597	57.4775	5.3751	2.0000
96.7000	62.3427	60.2855	57.4406	5.3782	2.0000
96.8000	62.2978	60.2113	57.4037	5.3813	2.0000
96.9000	62.4096	60.4263	57.6941	5.3830	2.0000
97.0000	62.5314	60.6598	58.0054	5.3800	2.0000
97.1000	62.6533	60.8933	58.3166	5.3770	2.0000
97.2000	62.7751	61.1268	58.6279	5.3740	2.0000
97.3000	62.8969	61.3604	58.9392	5.3710	2.0000
97.4000	63.0188	61.5939	59.2504	5.3680	2.0000
97.5000	63.1406	61.8274	59.5617	5.3650	2.0000
97.6000	63.2624	62.0609	59.8730	5.3620	2.0000
97.7000	63.3843	62.2944	60.1842	5.3590	2.0000
97.8000	63.5061	62.5279	60.4955	5.3560	2.0000
97.9000	63.6279	62.7614	60.8067	5.3530	2.0000
98.0000	63.7498	62.9949	61.1180	5.3501	2.0000
98.1000	63.7774	63.0388	60.9871	5.3471	2.0000
98.2000	63.7872	63.0465	60.7720	5.3441	2.0000
98.3000	63.7969	63.0542	60.5569	5.3411	2.0000
98.4000	63.8067	63.0619	60.3417	5.3381	2.0000
98.5000	63.8164	63.0697	60.1266	5.3351	2.0000
98.6000	63.8261	63.0774	59.9115	5.3321	2.0000
98.7000	63.8359	63.0851	59.6964	5.3291	2.0000
98.8000	63.8456	63.0928	59.4813	5.3261	2.0000
98.9000	63.8554	63.1005	59.2662	5.3231	2.0000
99.0000	63.8651	63.1083	59.0510	5.3201	2.0000
99.1000	63.8748	63.1160	58.8359	5.3171	2.0000
99.2000	63.8988	63.1236	58.6369	5.3141	2.0000
99.3000	64.1447	63.1292	58.6893	5.3112	2.0000
99.4000	64.3907	63.1348	58.7417	5.3082	2.0000
99.5000	64.6367	63.1404	58.7942	5.3052	2.0000
99.6000	64.8827	63.1460	58.8466	5.3022	2.0000
99.7000	65.1287	63.1516	58.8991	5.2992	2.0000
99.8000	65.3747	63.1572	58.9515	5.2962	2.0000
99.9000	65.6207	63.1628	59.0039	5.2964	2.0000
100.0000	65.8667	63.1684	59.0564	5.2978	2.0000
100.1000	66.1127	63.1741	59.1088	5.2993	2.0000
100.2000	66.3587	63.1797	59.1613	5.3007	2.0000
100.3000	66.6047	63.1853	59.2137	5.3022	2.0000
100.4000	66.8318	63.2119	59.2709	5.3036	2.0000
100.5000	67.0147	63.2876	59.3394	5.3051	2.0000
100.6000	67.1977	63.3633	59.4078	5.3065	2.0000
100.7000	67.3807	63.4390	59.4763	5.3080	2.0000
100.8000	67.5636	63.5147	59.5447	5.3094	2.0000
100.9000	67.7466	63.5904	59.6132	5.3109	2.0000
101.0000	67.9296	63.6661	59.6816	5.3123	2.0000
101.1000	68.1125	63.7418	59.7501	5.3138	2.0000
101.2000	68.2955	63.8175	59.8185	5.3152	2.0000
101.3000	68.4785	63.8932	59.8870	5.3167	2.0000
101.4000	68.6614	63.9689	59.9554	5.3181	2.0000
101.5000	68.8444	64.0446	60.0239	5.3195	2.0000
101.6000	68.9533	64.0417	59.9983	5.3210	2.0000
101.7000	68.9511	63.9211	59.8316	5.3224	2.0000
101.8000	68.9490	63.8005	59.6649	5.3239	2.0000
101.9000	68.9468	63.6799	59.4982	5.3253	2.0000
102.0000	68.9446	63.5593	59.3315	5.3268	2.0000
102.1000	68.9424	63.4387	59.1648	5.3282	2.0000
102.2000	68.9402	63.3181	58.9981	5.3297	2.0000
102.3000	68.9381	63.1975	58.8314	5.3311	2.0000
102.4000	68.9359	63.0769	58.6647	5.3326	2.0000
102.5000	68.9337	62.9563	58.4980	5.3340	2.0000
102.6000	68.9315	62.8357	58.3313	5.3355	2.0000
102.7000	68.9424	62.7287	58.1800	5.3369	2.0000
102.8000	69.2657	62.9486	58.3994	5.3384	2.0000
102.9000	69.5890	63.1685	58.6188	5.3398	2.0000
103.0000	69.9123	63.3883	58.8382	5.3413	2.0000
103.1000	70.2356	63.6082	59.0576	5.3427	2.0000
103.2000	70.5589	63.8281	59.2770	5.3433	2.0000
103.3000	70.8822	64.0480	59.4964	5.3437	2.0000
103.4000	71.2055	64.2678	59.7158	5.3441	2.0000
103.5000	71.5288	64.4877	59.9352	5.3445	2.0000
103.6000	71.8521	64.7076	60.1546	5.3449	2.0000
103.7000	72.1754	64.9274	60.3740	5.3453	2.0000
103.8000	72.4987	65.1473	60.5934	5.3457	2.0000
103.9000	72.7822	65.3344	60.7980	5.3461	2.0000
104.0000	72.8842	65.3724	60.9350	5.3465	2.0000
104.1000	72.9862	65.4104	61.0721	5.3469	2.0000
104.2000	73.0882	65.4484	61.2091	5.3473	2.0000
104.3000	73.1902	65.4864	61.3462	5.3477	2.0000
104.4000	73.2923	65.5244	61.4832	5.3481	2.0000
104.5000	73.3943	65.5624	61.6203	5.3485	2.0000
104.6000	73.4963	65.6004	61.7573	5.3490	2.0000
104.7000	73.5983	65.6384	61.8944	5.3494	2.0000
104.8000	73.7003	65.6764	62.0314	5.3498	2.0000
104.9000	73.8024	65.7144	62.1685	5.3502	2.0000
105.0000	73.9044	65.7524	62.3055	5.3506	2.0000
105.1000	73.9454	65.7502	62.3884	5.3510	2.0000
105.2000	73.8869	65.6825	62.3828	5.3514	2.0000
105.3000	73.8284	65.6147	62.3772	5.3518	2.0000
105.4000	73.7699	65.5470	62.3716	5.3522	2.0000
105.5000	73.7114	65.4792	62.3660	5.3526	2.0000
105.6000	73.6529	65.4115	62.3604	5.3530	2.0000
105.7000	73.5944	65.3437	62.3549	5.3534	2.0000
105.8000	73.5359	65.2759	62.3493	5.3538	2.0000
105.9000	73.4774	65.2082	62.3437	5.3542	2.0000
106.0000	73.4189	65.1404	62.3381	5.3546	2.0000
106.1000	73.3605	65.0727	62.3325	5.3550	2.0000
106.2000	73.3020	65.0049	62.3269	5.3554	2.0000
106.3000	73.4136	65.0110	62.3331	5.3558	2.0000
106.4000	73.5483	65.0272	62.3408	5.3564	2.0000
106.5000	73.6831	65.0434	62.3486	5.3577	2.0000
106.6000	73.8179	65.0596	62.3563	5.3589	2.0000
106.7000	73.9527	65.0758	62.3641	5.3602	2.0000
106.8000	74.0875	65.0920	62.3718	5.3615	2.0000
106.9000	74.2223	65.1082	62.3795	5.3627	2.0000
107.0000	74.3571	65.1244	62.3873	5.3640	2.0000
107.1000	74.4918	65.1406	62.3950	5.3652	2.0000
107.2000	74.6266	65.1567	62.4028	5.3665	2.0000
107.3000	74.7614	65.1729	62.4105	5.3678	2.0000
107.4000	74.8962	65.1891	62.4183	5.3690	2.0000
107.5000	74.8020	65.1119	62.3180	5.3703	2.0000
107.6000	74.6575	65.0143	62.1939	5.3716	2.0000
107.7000	74.5130	64.9166	62.0699	5.3728	2.0000
107.8000	74.3685	64.8189	61.9459	5.3741	2.0000
107.9000	74.2240	64.7212	61.8219	5.3753	2.0000
108.0000	74.0795	64.6235	61.6978	5.3766	2.0000
108.1000	73.9350	64.5259	61.5738	5.3779	2.0000
108.2000	73.7905	64.4282	61.4498	5.3791	2.0000
108.3000	73.6460	64.3305	61.3258	5.3804	2.0000
108.4000	73.5015	64.2328	61.2017	5.3817	2.0000
108.5000	73.3570	64.1351	61.0777	5.3829	2.0000
108.6000	73.2125	64.0375	60.9537	5.3842	2.0000
108.7000	73.0472	63.8434	60.7602	5.3854	2.0000
108.8000	72.8713	63.5998	60.5309	5.3867	2.0000
108.9000	72.6953	63.3561	60.3016	5.3880	2.0000
109.0000	72.5194	63.1124	60.0724	5.3892	2.0000
109.1000	72.3434	62.8687	59.8431	5.3905	2.0000
109.2000	72.1675	62.6251	59.6138	5.3918	2.0000
109.3000	71.9915	62.3814	59.3846	5.3930	2.0000
109.4000	71.8156	62.1377	59.1553	5.3943	2.0000
109.5000	71.6396	61.8940	58.9260	5.3955	2.0000
109.6000	71.4636	61.6504	58.6967	5.3968	2.0000
109.7000	71.2877	61.4067	58.4675	5.3933	2.0000
109.8000	71.1117	61.1630	58.2382	5.3895	2.0000
109.9000	71.0735	61.3390	58.4088	5.3858	2.0000
110.0000	71.0472	61.5514	58.6142	5.3820	2.0000
110.1000	71.0210	61.7639	58.8196	5.3783	2.0000
110.2000	70.9947	61.9763	59.0249	5.3746	2.0000
110.3000	70.9684	62.1888	59.2303	5.3708	2.0000
110.4000	70.9422	62.4012	59.4357	5.3671	2.0000
110.5000	70.9159	62.6137	59.6411	5.3633	2.0000
110.6000	70.8897	62.8261	59.8465	5.3596	2.0000
110.7000	70.8634	63.0386	60.0518	5.3559	2.0000
110.8000	70.8371	63.2510	60.2572	5.3521	2.0000
110.9000	70.8109	63.4635	60.4626	5.3484	2.0000
111.0000	70.7846	63.6759	60.6680	5.3446	2.0000
111.1000	70.6527	63.6005	60.5257	5.3409	2.0000
111.2000	70.5187	63.5192	60.3763	5.3371	2.0000
111.3000	70.3846	63.4379	60.2269	5.3334	2.0000
111.4000	70.2506	63.3566	60.0775	5.3297	2.0000
111.5000	70.1166	63.2753	59.9281	5.3259	2.0000
111.6000	69.9825	63.1940	59.7787	5.3222	2.0000
111.7000	69.8485	63.1127	59.6292	5.3184	2.0000
111.8000	69.7144	63.0314	59.4798	5.3147	2.0000
111.9000	69.5804	62.9501	59.3304	5.3110	2.0000
112.0000	69.4463	62.8688	59.1810	5.3072	2.0000
112.1000	69.3123	62.7875	59.0316	5.3035	2.0000
112.2000	69.2829	62.7279	58.9238	5.2997	2.0000
112.3000	69.5847	62.7373	58.9476	5.2960	2.0000
112.4000	69.8866	62.7467	58.9714	5.2923	2.0000
112.5000	70.1885	62.7561	58.9952	5.2885	2.0000
112.6000	70.4904	62.7654	59.0190	5.2848	2.0000
112.7000	70.7922	62.7748	59.0429	5.2810	2.0000
112.8000	71.0941	62.7842	59.0667	5.2773	2.0000
112.9000	71.3960	62.7936	59.0905	5.2736	2.0000
113.0000	71.6978	62.8030	59.1143	5.2722	2.0000
113.1000	71.9997	62.8123	59.1381	5.2746	2.0000
113.2000	72.3016	62.8217	59.1619	5.2769	2.0000
113.3000	72.6035	62.8311	59.1857	5.2792	2.0000
113.4000	72.8035	62.9845	59.3349	5.2815	2.0000
113.5000	72.9557	63.2056	59.5431	5.2838	2.0000
113.6000	73.1078	63.4267	59.7513	5.2861	2.0000
113.7000	73.2600	63.6479	59.9595	5.2885	2.0000
113.8000	73.4121	63.8690	60.1677	5.2908	2.0000
113.9000	73.5643	64.0901	60.3759	5.2931	2.0000
114.0000	73.7164	64.3112	60.5841	5.2954	2.0000
114.1000	73.8686	64.5324	60.7923	5.2977	2.0000
114.2000	74.0207	64.7535	61.0005	5.3000	2.0000
114.3000	74.1729	64.9746	61.2087	5.3024	2.0000
114.4000	74.3250	65.1958	61.4169	5.3047	2.0000
114.5000	74.4772	65.4169	61.6251	5.3070	2.0000
114.6000	74.3935	65.3251	61.6150	5.3093	2.0000
114.7000	74.2715	65.1824	61.5694	5.3116	2.0000
114.8000	74.1495	65.0397	61.5237	5.3139	2.0000
114.9000	74.0275	64.8970	61.4781	5.3163	2.0000
115.0000	73.9055	64.7542	61.4324	5.3186	2.0000
115.1000	73.7835	64.6115	61.3868	5.3209	2.0000
115.2000	73.6615	64.4688	61.3412	5.3232	2.0000
115.3000	73.5395	64.3261	61.2955	5.3255	2.0000
115.4000	73.4175	64.1834	61.2499	5.3278	2.0000
115.5000	73.2955	64.0407	61.2042	5.3302	2.0000
115.6000	73.1735	63.8979	61.1586	5.3325	2.0000
115.7000	73.2258	64.0302	61.2255	5.3348	2.0000
115.8000	73.4149	64.3785	61.3807	5.3371	2.0000
115.9000	73.6041	64.7268	61.5360	5.3394	2.0000
116.0000	73.7933	65.0750	61.6912	5.3417	2.0000
116.1000	73.9824	65.4233	61.8465	5.3441	2.0000
116.2000	74.1716	65.7716	62.0017	5.3459	2.0000
116.3000	74.3607	66.1199	62.1570	5.3475	2.0000
116.4000	74.5499	66.4682	62.3123	5.3492	2.0000
116.5000	74.7390	66.8165	62.4675	5.3508	2.0000
116.6000	74.9282	67.1648	62.6228	5.3524	2.0000
116.7000	75.1174	67.5130	62.7780	5.3540	2.0000
116.8000	75.2848	67.7921	62.9358	5.3556	2.0000
116.9000	75.3966	67.8930	63.1000	5.3573	2.0000
117.0000	75.5083	67.9939	63.2642	5.3589	2.0000
117.1000	75.6200	68.0949	63.4284	5.3605	2.0000
117.2000	75.7318	68.1958	63.5926	5.3621	2.0000
117.3000	75.8435	68.2967	63.7568	5.3637	2.0000
117.4000	75.9553	68.3976	63.9209	5.3653	2.0000
117.5000	76.0670	68.4986	64.0851	5.3670	2.0000
117.6000	76.1787	68.5995	64.2493	5.3686	2.0000
117.7000	76.2905	68.7004	64.4135	5.3702	2.0000
117.8000	76.4022	68.8013	64.5777	5.3718	2.0000
117.9000	76.5140	68.9023	64.7419	5.3734	2.0000
118.0000	76.5325	68.9169	64.7291	5.3751	2.0000
118.1000	76.4940	68.8787	64.6077	5.3767	2.0000
118.2000	76.4555	68.8405	64.4864	5.3783	2.0000
118.3000	76.4170	68.8023	64.3651	5.3799	2.0000
118.4000	76.3784	68.7641	64.2438	5.3815	2.0000
118.5000	76.3399	68.7259	64.1224	5.3832	2.0000
118.6000	76.3014	68.6877	64.0011	5.3848	2.0000
118.7000	76.2629	68.6495	63.8798	5.3864	2.0000
118.8000	76.2243	68.6113	63.7585	5.3880	2.0000
118.9000	76.1858	68.5731	63.6371	5.3896	2.0000
119.0000	76.1473	68.5349	63.5158	5.3912	2.0000
119.1000	76.2024	68.5406	63.4739	5.3929	2.0000
119.2000	76.4393	68.6315	63.5860	5.3945	2.0000
119.3000	76.6762	68.7225	63.6981	5.3961	2.0000
119.4000	76.9131	68.8135	63.8102	5.3977	2.0000
119.5000	77.1500	68.9044	63.9223	5.3993	2.0000
119.6000	77.3869	68.9954	64.0344	5.4010	2.0000
119.7000	77.6238	69.0863	64.1465	5.4026	2.0000
119.8000	77.8607	69.1773	64.2586	5.4036	2.0000
119.9000	78.0976	69.2683	64.3707	5.4029	2.0000
120.0000	78.3345	69.3592	64.4828	5.4022	2.0000
120.1000	78.5714	69.4502	64.5949	5.4015	2.0000
120.2000	78.8083	69.5412	64.7070	5.4008	2.0000
120.3000	79.0650	69.7758	64.7503	5.4001	2.0000
120.4000	79.3249	70.0339	64.7824	5.3993	2.0000
120.5000	79.5847	70.2920	64.8144	5.3986	2.0000
120.6000	79.8446	70.5501	64.8465	5.3979	2.0000
120.7000	80.1045	70.8082	64.8786	5.3972	2.0000
120.8000	80.3644	71.0663	64.9107	5.3965	2.0000
120.9000	80.6243	71.3244	64.9427	5.3958	2.0000
121.0000	80.8841	71.5825	64.9748	5.3950	2.0000
121.1000	81.1440	71.8406	65.0069	5.3943	2.0000
121.2000	81.4039	72.0987	65.0389	5.3936	2.0000
121.3000	81.4989	72.1561	64.9902	5.3929	2.0000
121.4000	81.3840	71.9583	64.8385	5.3922	2.0000
121.5000	81.2691	71.7604	64.6868	5.3915	2.0000
121.6000	81.1542	71.5625	64.5351	5.3908	2.0000
121.7000	81.0393	71.3646	64.3834	5.3900	2.0000
121.8000	80.9244	71.1667	64.2318	5.3893	2.0000
121.9000	80.8095	70.9688	64.0801	5.3886	2.0000
122.0000	80.6946	70.7709	63.9284	5.3879	2.0000
122.1000	80.5797	70.5730	63.7767	5.3872	2.0000
122.2000	80.4648	70.3751	63.6250	5.3865	2.0000
122.3000	80.3499	70.1772	63.4734	5.3857	2.0000
122.4000	80.2060	69.8886	63.2932	5.3850	2.0000
122.5000	80.0602	69.5941	63.1113	5.3843	2.0000
122.6000	79.9145	69.2997	62.9293	5.3836	2.0000
122.7000	79.7687	69.0053	62.7474	5.3829	2.0000
122.8000	79.6230	68.7108	62.5655	5.3822	2.0000
122.9000	79.4772	68.4164	62.3835	5.3815	2.0000
123.0000	79.3314	68.1219	62.2016	5.3807	2.0000
123.1000	79.1857	67.8275	62.0196	5.3800	2.0000
123.2000	79.0399	67.5330	61.8377	5.3793	2.0000
123.3000	78.8942	67.2386	61.6557	5.3786	2.0000
123.4000	78.7484	66.9442	61.4738	5.3779	2.0000
123.5000	78.7038	66.8175	61.3543	5.3772	2.0000
123.6000	78.6785	66.7227	61.2468	5.3764	2.0000
123.7000	78.6532	66.6280	61.1393	5.3757	2.0000
123.8000	78.6279	66.5333	61.0317	5.3750	2.0000
123.9000	78.6026	66.4385	60.9242	5.3743	2.0000
124.0000	78.5773	66.3438	60.8166	5.3736	2.0000
124.1000	78.5520	66.2491	60.7091	5.3729	2.0000
124.2000	78.5267	66.1543	60.6016	5.3722	2.0000
124.3000	78.5013	66.0596	60.4940	5.3714	2.0000
124.4000	78.4760	65.9649	60.3865	5.3707	2.0000
124.5000	78.4507	65.8701	60.2789	5.3700	2.0000
124.6000	78.4254	65.7754	60.1714	5.3693	2.0000
124.7000	78.1594	65.5700	60.0930	5.3686	2.0000
124.8000	77.8543	65.3465	60.0194	5.3679	2.0000
124.9000	77.5491	65.1231	59.9457	5.3671	2.0000
125.0000	77.2439	64.8996	59.8721	5.3664	2.0000
125.1000	76.9388	64.6762	59.7984	5.3657	2.0000
125.2000	76.6336	64.4528	59.7248	5.3650	2.0000
125.3000	76.3284	64.2293	59.6511	5.3643	2.0000
125.4000	76.0233	64.0059	59.5775	5.3636	2.0000
125.5000	75.7181	63.7824	59.5038	5.3629	2.0000
125.6000	75.4129	63.5590	59.4302	5.3621	2.0000
125.7000	75.1078	63.3356	59.3565	5.3614	2.0000
125.8000	74.8134	63.1186	59.2844	5.3607	2.0000
125.9000	74.6163	62.9594	59.2265	5.3600	2.0000
126.0000	74.4191	62.8003	59.1685	5.3593	2.0000
126.1000	74.2220	62.6411	59.1106	5.3586	2.0000
126.2000	74.0248	62.4820	59.0526	5.3578	2.0000
126.3000	73.8277	62.3228	58.9946	5.3571	2.0000
126.4000	73.6305	62.1637	58.9367	5.3564	2.0000
126.5000	73.4334	62.0045	58.8787	5.3557	2.0000
126.6000	73.2362	61.8454	58.8208	5.3550	2.0000
126.7000	73.0391	61.6862	58.7628	5.3514	2.0000
126.8000	72.8419	61.5271	58.7048	5.3462	2.0000
126.9000	72.6448	61.3679	58.6469	5.3409	2.0000
127.0000	72.5940	61.4045	58.7598	5.3357	2.0000
127.1000	72.6492	61.5828	58.9965	5.3305	2.0000
127.2000	72.7043	61.7612	59.2331	5.3253	2.0000
127.3000	72.7595	61.9395	59.4698	5.3201	2.0000
127.4000	72.8147	62.1178	59.7065	5.3148	2.0000
127.5000	72.8699	62.2962	59.9432	5.3096	2.0000
127.6000	72.9251	62.4745	60.1798	5.3044	2.0000
127.7000	72.9803	62.6528	60.4165	5.2992	2.0000
127.8000	73.0355	62.8311	60.6532	5.2940	2.0000
127.9000	73.0907	63.0095	60.8899	5.2887	2.0000
128.0000	73.1459	63.1878	61.1265	5.2835	2.0000
128.1000	73.2011	63.3661	61.3632	5.2783	2.0000
128.2000	73.1649	63.5227	61.4733	5.2731	2.0000
128.3000	73.1269	63.6789	61.5808	5.2679	2.0000
128.4000	73.0889	63.8351	61.6883	5.2626	2.0000
128.5000	73.0509	63.9912	61.7958	5.2574	2.0000
128.6000	73.0130	64.1474	61.9033	5.2522	2.0000
128.7000	72.9750	64.3036	62.0108	5.2470	2.0000
128.8000	72.9370	64.4597	62.1183	5.2417	2.0000
128.9000	72.8990	64.6159	62.2258	5.2365	2.0000
129.0000	72.8610	64.7721	62.3333	5.2313	2.0000
129.1000	72.8230	64.9282	62.4408	5.2261	2.0000
129.2000	72.7850	65.0844	62.5483	5.2209	2.0000
129.3000	73.1346	65.5310	62.9235	5.2156	2.0000
129.4000	73.5371	66.0171	63.3352	5.2104	2.0000
129.5000	73.9396	66.5033	63.7469	5.2052	2.0000
129.6000	74.3421	66.9895	64.1586	5.2000	2.0000
129.7000	74.7445	67.4756	64.5704	5.1948	2.0000
129.8000	75.1470	67.9618	64.9821	5.1895	2.0000
129.9000	75.5495	68.4480	65.3938	5.1843	2.0000
130.0000	75.9520	68.9342	65.8055	5.1791	2.0000
130.1000	76.3545	69.4203	66.2172	5.1763	2.0000
130.2000	76.7569	69.9065	66.6289	5.1776	2.0000
130.3000	77.1630	70.3797	67.0443	5.1790	2.0000
130.4000	77.6100	70.7039	67.5016	5.1804	2.0000
130.5000	78.0570	71.0281	67.9590	5.1817	2.0000
130.6000	78.5039	71.3524	68.4163	5.1831	2.0000
130.7000	78.9509	71.6766	68.8737	5.1845	2.0000
130.8000	79.3979	72.0008	69.3311	5.1858	2.0000
130.9000	79.8449	72.3250	69.7884	5.1872	2.0000
131.0000	80.2919	72.6492	70.2458	5.1886	2.0000
131.1000	80.7389	72.9734	70.7031	5.1900	2.0000
131.2000	81.1859	73.2977	71.1605	5.1913	2.0000
131.3000	81.6329	73.6219	71.6179	5.1927	2.0000
131.4000	82.0798	73.9461	72.0752	5.1941	2.0000
131.5000	82.3234	74.0562	72.1696	5.1954	2.0000
131.6000	82.3637	73.9523	71.9009	5.1968	2.0000
131.7000	82.4039	73.8484	71.6322	5.1982	2.0000
131.8000	82.4441	73.7444	71.3635	5.1996	2.0000
131.9000	82.4843	73.6405	71.0948	5.2009	2.0000
132.0000	82.5245	73.5366	70.8261	5.2023	2.0000
132.1000	82.5647	73.4326	70.5574	5.2037	2.0000
132.2000	82.6050	73.3287	70.2887	5.2050	2.0000
132.3000	82.6452	73.2248	70.0200	5.2064	2.0000
132.4000	82.6854	73.1208	69.7513	5.2078	2.0000
132.5000	82.7256	73.0169	69.4826	5.2091	2.0000
132.6000	82.7658	72.9130	69.2139	5.2105	2.0000
132.7000	82.7644	72.7531	68.9700	5.2119	2.0000
132.8000	82.6820	72.4848	68.7741	5.2133	2.0000
132.9000	82.5997	72.2165	68.5783	5.2146	2.0000
133.0000	82.5174	71.9481	68.3824	5.2160	2.0000
133.1000	82.4351	71.6798	68.1866	5.2174	2.0000
133.2000	82.3527	71.4115	67.9907	5.2187	2.0000
133.3000	82.2704	71.1431	67.7948	5.2201	2.0000
133.4000	82.1881	70.8748	67.5990	5.2215	2.0000
133.5000	82.1057	70.6065	67.4031	5.2230	2.0000
133.6000	82.0234	70.3381	67.2073	5.2250	2.0000
133.7000	81.9411	70.0698	67.0114	5.2270	2.0000
133.8000	81.8587	69.8015	66.8156	5.2290	2.0000
133.9000	81.7764	69.5331	66.6197	5.2310	2.0000
134.0000	81.6798	69.3042	66.4442	5.2330	2.0000
134.1000	81.5651	69.1254	66.2947	5.2350	2.0000
134.2000	81.4504	68.9466	66.1451	5.2370	2.0000
134.3000	81.3357	68.7678	65.9956	5.2390	2.0000
134.4000	81.2210	68.5891	65.8460	5.2411	2.0000
134.5000	81.1063	68.4103	65.6965	5.2431	2.0000
134.6000	80.9916	68.2315	65.5469	5.2451	2.0000
134.7000	80.8769	68.0527	65.3974	5.2471	2.0000
134.8000	80.7622	67.8739	65.2478	5.2491	2.0000
134.9000	80.6475	67.6952	65.0983	5.2511	2.0000
135.0000	80.5328	67.5164	64.9487	5.2531	2.0000
135.1000	80.4181	67.3376	64.7992	5.2551	2.0000
135.2000	80.3034	67.1588	64.6496	5.2571	2.0000
135.3000	80.0984	66.9220	64.4602	5.2591	2.0000
135.4000	79.7687	66.6052	64.2156	5.2612	2.0000
135.5000	79.4390	66.2883	63.9710	5.2632	2.0000
135.6000	79.1094	65.9715	63.7264	5.2652	2.0000
135.7000	78.7797	65.6546	63.4818	5.2672	2.0000
135.8000	78.4501	65.3378	63.2372	5.2692	2.0000
135.9000	78.1204	65.0209	62.9926	5.2712	2.0000
136.0000	77.7907	64.7040	62.7480	5.2732	2.0000
136.1000	77.4611	64.3872	62.5034	5.2752	2.0000
136.2000	77.1314	64.0703	62.2588	5.2772	2.0000
136.3000	76.8017	63.7535	62.0142	5.2793	2.0000
136.4000	76.4721	63.4366	61.7696	5.2813	2.0000
136.5000	76.1424	63.1198	61.5250	5.2833	2.0000
136.6000	76.0285	63.0824	61.5440	5.2853	2.0000
136.7000	75.9237	63.0567	61.5740	5.2888	2.0000
136.8000	75.8188	63.0310	61.6039	5.2923	2.0000
136.9000	75.7140	63.0053	61.6339	5.2958	2.0000
137.0000	75.6091	62.9796	61.6639	5.2994	2.0000
137.1000	75.5042	62.9538	61.6938	5.3029	2.0000
137.2000	75.3994	62.9281	61.7238	5.3064	2.0000
137.3000	75.2945	62.9024	61.7538	5.3100	2.0000
137.4000	75.1897	62.8767	61.7837	5.3135	2.0000
137.5000	75.0848	62.8510	61.8137	5.3170	2.0000
137.6000	74.9799	62.8253	61.8437	5.3206	2.0000
137.7000	74.8751	62.7996	61.8737	5.3241	2.0000
137.8000	74.7702	62.7739	61.9036	5.3277	2.0000
137.9000	74.5648	62.8589	61.8795	5.3312	2.0000
138.0000	74.3483	62.9562	61.8494	5.3347	2.0000
138.1000	74.1317	63.0536	61.8193	5.3383	2.0000
138.2000	73.9152	63.1509	61.7892	5.3418	2.0000
138.3000	73.6986	63.2483	61.7590	5.3453	2.0000
138.4000	73.4821	63.3456	61.7289	5.3489	2.0000
138.5000	73.2655	63.4430	61.6988	5.3524	2.0000
138.6000	73.0490	63.5403	61.6687	5.3559	2.0000
138.7000	72.8324	63.6377	61.6386	5.3595	2.0000
138.8000	72.6159	63.7350	61.6085	5.3630	2.0000
138.9000	72.3993	63.8323	61.5783	5.3666	2.0000
139.0000	72.1828	63.9297	61.5482	5.3701	2.0000
139.1000	71.9660	63.9803	61.5142	5.3736	2.0000
139.2000	71.7476	63.7438	61.4561	5.3772	2.0000
139.3000	71.5292	63.5073	61.3980	5.3807	2.0000
139.4000	71.3108	63.2708	61.3399	5.3842	2.0000
139.5000	71.0924	63.0343	61.2818	5.3878	2.0000
139.6000	70.8741	62.7978	61.2237	5.3913	2.0000
139.7000	70.6557	62.5613	61.1656	5.3948	2.0000
139.8000	70.4373	62.3248	61.1075	5.3984	2.0000
139.9000	70.2189	62.0882	61.0494	5.4019	2.0000
140.0000	70.0005	61.8517	60.9913	5.4019	2.0000
140.1000	69.7821	61.6152	60.9332	5.4002	2.0000
140.2000	69.5637	61.3787	60.8751	5.3986	2.0000
140.3000	69.3453	61.1422	60.8170	5.3969	2.0000
140.4000	69.2853	61.2915	60.9317	5.3952	2.0000
140.5000	69.2930	61.6060	61.1206	5.3936	2.0000
140.6000	69.3007	61.9206	61.3094	5.3919	2.0000
140.7000	69.3085	62.2352	61.4982	5.3903	2.0000
140.8000	69.3162	62.5498	61.6870	5.3886	2.0000
140.9000	69.3240	62.8643	61.8758	5.3869	2.0000
141.0000	69.3317	63.1789	62.0646	5.3853	2.0000
141.1000	69.3395	63.4935	62.2534	5.3836	2.0000
141.2000	69.3472	63.8081	62.4422	5.3819	2.0000
141.3000	69.3549	64.1226	62.6310	5.3803	2.0000
141.4000	69.3627	64.4372	62.8198	5.3786	2.0000
141.5000	69.3704	64.7518	63.0086	5.3769	2.0000
141.6000	69.3782	65.0664	63.1975	5.3753	2.0000
141.7000	69.2530	65.1671	63.1237	5.3736	2.0000
141.8000	69.0904	65.2074	62.9760	5.3719	2.0000
141.9000	68.9278	65.2478	62.8282	5.3703	2.0000
142.0000	68.7651	65.2882	62.6805	5.3686	2.0000
142.1000	68.6025	65.3286	62.5328	5.3669	2.0000
142.2000	68.4398	65.3690	62.3850	5.3653	2.0000
142.3000	68.2772	65.4093	62.2373	5.3636	2.0000
142.4000	68.1146	65.4497	62.0895	5.3619	2.0000
142.5000	67.9519	65.4901	61.9418	5.3603	2.0000
142.6000	67.7893	65.5305	61.7940	5.3586	2.0000
142.7000	67.6266	65.5709	61.6463	5.3569	2.0000
142.8000	67.4640	65.6112	61.4985	5.3553	2.0000
142.9000	67.3012	65.6430	61.3582	5.3536	2.0000
143.0000	67.1368	65.5968	61.2844	5.3519	2.0000
143.1000	66.9724	65.5505	61.2107	5.3503	2.0000
143.2000	66.8080	65.5043	61.1369	5.3486	2.0000
143.3000	66.6436	65.4581	61.0632	5.3470	2.0000
143.4000	66.4792	65.4119	60.9894	5.3453	2.0000
143.5000	66.3148	65.3657	60.9157	5.3436	2.0000
143.6000	66.1504	65.3195	60.8420	5.3420	2.0000
143.7000	65.9860	65.2733	60.7682	5.3403	2.0000
143.8000	65.8216	65.2271	60.6945	5.3387	2.0000
143.9000	65.6572	65.1809	60.6207	5.3398	2.0000
144.0000	65.4928	65.1347	60.5470	5.3409	2.0000
144.1000	65.3330	65.0955	60.4805	5.3420	2.0000
144.2000	65.4031	65.3972	60.7684	5.3430	2.0000
144.3000	65.4732	65.6990	61.0564	5.3441	2.0000
144.4000	65.5433	66.0007	61.3443	5.3452	2.0000
144.5000	65.6133	66.3024	61.6323	5.3463	2.0000
144.6000	65.6834	66.6042	61.9202	5.3474	2.0000
144.7000	65.7535	66.9059	62.2082	5.3484	2.0000
144.8000	65.8236	67.2076	62.4961	5.3495	2.0000
144.9000	65.8936	67.5094	62.7841	5.3506	2.0000
145.0000	65.9637	67.8111	63.0720	5.3517	2.0000
145.1000	66.0338	68.1128	63.3600	5.3527	2.0000
145.2000	66.1039	68.4146	63.6479	5.3538	2.0000
145.3000	66.1739	68.7163	63.9359	5.3549	2.0000
145.4000	66.1584	68.8579	64.0020	5.3560	2.0000
145.5000	66.0988	68.9171	63.9540	5.3570	2.0000
145.6000	66.0392	68.9763	63.9059	5.3581	2.0000
145.7000	65.9796	69.0354	63.8579	5.3592	2.0000
145.8000	65.9200	69.0946	63.8098	5.3603	2.0000
145.9000	65.8603	69.1538	63.7618	5.3614	2.0000
146.0000	65.8007	69.2130	63.7138	5.3624	2.0000
146.1000	65.7411	69.2721	63.6657	5.3635	2.0000
146.2000	65.6815	69.3313	63.6177	5.3646	2.0000
146.3000	65.6219	69.3905	63.5696	5.3657	2.0000
146.4000	65.5623	69.4497	63.5216	5.3667	2.0000
146.5000	65.5026	69.5088	63.4735	5.3678	2.0000
146.6000	65.4275	69.4519	63.3377	5.3689	2.0000
146.7000	65.3381	69.2877	63.1210	5.3700	2.0000
146.8000	65.2487	69.1236	62.9043	5.3711	2.0000
146.9000	65.1593	68.9594	62.6876	5.3721	2.0000
147.0000	65.0699	68.7952	62.4708	5.3732	2.0000
147.1000	64.9805	68.6311	62.2541	5.3743	2.0000
147.2000	64.8911	68.4669	62.0374	5.3754	2.0000
147.3000	64.8017	68.3028	61.8206	5.3764	2.0000
147.4000	64.7123	68.1386	61.6039	5.3775	2.0000
147.5000	64.6229	67.9745	61.3872	5.3786	2.0000
147.6000	64.5335	67.8103	61.1705	5.3797	2.0000
147.7000	64.4441	67.6462	60.9537	5.3807	2.0000
147.8000	64.5304	67.7693	61.0405	5.3797	2.0000
147.9000	64.6721	67.9832	61.2232	5.3785	2.0000
148.0000	64.8138	68.1971	61.4058	5.3773	2.0000
148.1000	64.9555	68.4110	61.5885	5.3761	2.0000
148.2000	65.0972	68.6249	61.7712	5.3749	2.0000
148.3000	65.2389	68.8388	61.9538	5.3737	2.0000
148.4000	65.3806	69.0527	62.1365	5.3725	2.0000
148.5000	65.5223	69.2667	62.3191	5.3714	2.0000
148.6000	65.6640	69.4806	62.5018	5.3702	2.0000
148.7000	65.8057	69.6945	62.6845	5.3690	2.0000
148.8000	65.9474	69.9084	62.8671	5.3678	2.0000
148.9000	66.0891	70.1223	63.0498	5.3666	2.0000
149.0000	66.0725	70.1073	63.0710	5.3654	2.0000
149.1000	65.9588	69.9520	62.9932	5.3642	2.0000
149.2000	65.8452	69.7968	62.9154	5.3630	2.0000
149.3000	65.7316	69.6415	62.8376	5.3619	2.0000
149.4000	65.6179	69.4863	62.7598	5.3607	2.0000
149.5000	65.5043	69.3310	62.6820	5.3595	2.0000
149.6000	65.3907	69.1758	62.6042	5.3583	2.0000
149.7000	65.2770	69.0205	62.5264	5.3571	2.0000
149.8000	65.1634	68.8653	62.4486	5.3559	2.0000
149.9000	65.0497	68.7100	62.3708	5.3547	2.0000
150.0000	64.9361	68.5548	62.2930	5.3536	2.0000
150.1000	64.8225	68.3995	62.2152	5.3524	2.0000
150.2000	64.7136	68.1511	62.0805	5.3512	2.0000
150.3000	64.6078	67.8406	61.9079	5.3500	2.0000
150.4000	64.5020	67.5301	61.7353	5.3488	2.0000
150.5000	64.3963	67.2196	61.5628	5.3476	2.0000
150.6000	64.2905	66.9091	61.3902	5.3464	2.0000
150.7000	64.1848	66.5985	61.2176	5.3453	2.0000
150.8000	64.0790	66.2880	61.0450	5.3441	2.0000
150.9000	63.9732	65.9775	60.8724	5.3429	2.0000
151.0000	63.8675	65.6670	60.6998	5.3417	2.0000
151.1000	63.7617	65.3565	60.5273	5.3405	2.0000
151.2000	63.6560	65.0460	60.3547	5.3393	2.0000
151.3000	63.5502	64.7355	60.1821	5.3417	2.0000
151.4000	63.6265	64.8025	60.3536	5.3458	2.0000
151.5000	63.7428	64.9524	60.6006	5.3499	2.0000
151.6000	63.8591	65.1023	60.8477	5.3540	2.0000
151.7000	63.9753	65.2522	61.0947	5.3581	2.0000
151.8000	64.0916	65.4021	61.3418	5.3622	2.0000
151.9000	64.2079	65.5520	61.5888	5.3663	2.0000
152.0000	64.3242	65.7020	61.8358	5.3704	2.0000
152.1000	64.4404	65.8519	62.0829	5.3745	2.0000
152.2000	64.5567	66.0018	62.3299	5.3786	2.0000
152.3000	64.6730	66.1517	62.5770	5.3827	2.0000
152.4000	64.7893	66.3016	62.8240	5.3868	2.0000
152.5000	64.9055	66.4515	63.0710	5.3909	2.0000
152.6000	64.8529	66.4203	63.0509	5.3950	2.0000
152.7000	64.7052	66.2872	62.8804	5.3991	2.0000
152.8000	64.5575	66.1540	62.7099	5.4032	2.0000
152.9000	64.4098	66.0209	62.5394	5.4073	2.0000
153.0000	64.2621	65.8878	62.3690	5.4114	2.0000
153.1000	64.1144	65.7547	62.1985	5.4155	2.0000
153.2000	63.9667	65.6215	62.0280	5.4196	2.0000
153.3000	63.8190	65.4884	61.8576	5.4237	2.0000
153.4000	63.6713	65.3553	61.6871	5.4278	2.0000
153.5000	63.5236	65.2222	61.5166	5.4319	2.0000
153.6000	63.3758	65.0890	61.3461	5.4360	2.0000
153.7000	63.2281	64.9559	61.1757	5.4401	2.0000
153.8000	63.2303	64.9011	61.0859	5.4442	2.0000
153.9000	63.2850	64.8737	61.0245	5.4483	2.0000
154.0000	63.3397	64.8464	60.9631	5.4524	2.0000
154.1000	63.3945	64.8191	60.9016	5.4565	2.0000
154.2000	63.4492	64.7917	60.8402	5.4607	2.0000
154.3000	63.5040	64.7644	60.7788	5.4648	2.0000
154.4000	63.5587	64.7370	60.7174	5.4660	2.0000
154.5000	63.6134	64.7097	60.6560	5.4643	2.0000
154.6000	63.6682	64.6824	60.5946	5.4625	2.0000
154.7000	63.7229	64.6550	60.5331	5.4607	2.0000
154.8000	63.7777	64.6277	60.4717	5.4589	2.0000
154.9000	63.8324	64.6004	60.4103	5.4572	2.0000
155.0000	63.9399	64.7603	60.5103	5.4554	2.0000
155.1000	64.0590	64.9613	60.6457	5.4536	2.0000
155.2000	64.1781	65.1623	60.7811	5.4518	2.0000
155.3000	64.2973	65.3633	60.9165	5.4500	2.0000
155.4000	64.4164	65.5643	61.0520	5.4483	2.0000
155.5000	64.5355	65.7653	61.1874	5.4465	2.0000
155.6000	64.6546	65.9663	61.3228	5.4447	2.0000
155.7000	64.7737	66.1674	61.4582	5.4429	2.0000
155.8000	64.8928	66.3684	61.5936	5.4412	2.0000
155.9000	65.0119	66.5694	61.7291	5.4394	2.0000
156.0000	65.1310	66.7704	61.8645	5.4376	2.0000
156.1000	65.2501	66.9714	61.9999	5.4358	2.0000
156.2000	65.2249	66.9696	61.9659	5.4341	2.0000
156.3000	65.0769	66.7949	61.7876	5.4323	2.0000
156.4000	64.9288	66.6203	61.6092	5.4305	2.0000
156.5000	64.7807	66.4456	61.4309	5.4287	2.0000
156.6000	64.6326	66.2710	61.2526	5.4270	2.0000
156.7000	64.4845	66.0963	61.0743	5.4252	2.0000
156.8000	64.3364	65.9217	60.8959	5.4234	2.0000
156.9000	64.1883	65.7470	60.7176	5.4216	2.0000
157.0000	64.0403	65.5724	60.5393	5.4199	2.0000
157.1000	63.8922	65.3977	60.3609	5.4181	2.0000
157.2000	63.7441	65.2231	60.1826	5.4163	2.0000
157.3000	63.5960	65.0485	60.0043	5.4145	2.0000
157.4000	63.5701	65.0190	59.9090	5.4127	2.0000
157.5000	63.6257	65.0863	59.8690	5.4110	2.0000
157.6000	63.6814	65.1536	59.8291	5.4092	2.0000
157.7000	63.7370	65.2210	59.7891	5.4074	2.0000
157.8000	63.7926	65.2883	59.7492	5.4056	2.0000
157.9000	63.8482	65.3556	59.7092	5.4039	2.0000
158.0000	63.9038	65.4229	59.6692	5.4021	2.0000
158.1000	63.9594	65.4903	59.6293	5.4003	2.0000
158.2000	64.0150	65.5576	59.5893	5.3999	2.0000
158.3000	64.0707	65.6249	59.5494	5.3996	2.0000
158.4000	64.1263	65.6922	59.5094	5.3993	2.0000
158.5000	64.1819	65.7595	59.4695	5.3990	2.0000
158.6000	64.2566	65.7402	59.4225	5.3987	2.0000
158.7000	64.3412	65.6761	59.3720	5.3984	2.0000
158.8000	64.4258	65.6121	59.3215	5.3981	2.0000
158.9000	64.5104	65.5481	59.2710	5.3978	2.0000
159.0000	64.5950	65.4841	59.2205	5.3975	2.0000
159.1000	64.6796	65.4200	59.1699	5.3972	2.0000
159.2000	64.7642	65.3560	59.1194	5.3969	2.0000
159.3000	64.8488	65.2920	59.0689	5.3966	2.0000
159.4000	64.9334	65.2280	59.0184	5.3964	2.0000
159.5000	65.0181	65.1639	58.9679	5.3961	2.0000
159.6000	65.1027	65.0999	58.9174	5.3958	2.0000
159.7000	65.1873	65.0359	58.8668	5.3955	2.0000
159.8000	65.2073	64.9592	58.8001	5.3952	2.0000
159.9000	65.1380	64.8649	58.7110	5.3949	2.0000
160.0000	65.0688	64.7707	58.6219	5.3946	2.0000
160.1000	64.9996	64.6765	58.5328	5.3943	2.0000
160.2000	64.9304	64.5822	58.4437	5.3940	2.0000
160.3000	64.8612	64.4880	58.3546	5.3937	2.0000
160.4000	64.7919	64.3938	58.2655	5.3934	2.0000
160.5000	64.7227	64.2996	58.1764	5.3931	2.0000
160.6000	64.6535	64.2053	58.0873	5.3928	2.0000
160.7000	64.5843	64.1111	57.9982	5.3925	2.0000
160.8000	64.5151	64.0169	57.9091	5.3922	2.0000
160.9000	64.4458	63.9226	57.8200	5.3919	2.0000
161.0000	64.6097	64.0327	57.9610	5.3916	2.0000
161.1000	64.8642	64.2223	58.1915	5.3913	2.0000
161.2000	65.1187	64.4119	58.4221	5.3910	2.0000
161.3000	65.3732	64.6015	58.6526	5.3904	2.0000
161.4000	65.6277	64.7910	58.8831	5.3891	2.0000
161.5000	65.8821	64.9806	59.1136	5.3878	2.0000
161.6000	66.1366	65.1702	59.3441	5.3866	2.0000
161.7000	66.3911	65.3597	59.5746	5.3853	2.0000
161.8000	66.6456	65.5493	59.8051	5.3840	2.0000
161.9000	66.9001	65.7389	60.0357	5.3827	2.0000
162.0000	67.1546	65.9285	60.2662	5.3814	2.0000
162.1000	67.4091	66.1180	60.4967	5.3801	2.0000
162.2000	67.5494	66.1469	60.7049	5.3788	2.0000
162.3000	67.6254	66.0854	60.9007	5.3775	2.0000
162.4000	67.7015	66.0239	61.0964	5.3762	2.0000
162.5000	67.7775	65.9624	61.2922	5.3749	2.0000
162.6000	67.8536	65.9010	61.4879	5.3736	2.0000
162.7000	67.9297	65.8395	61.6837	5.3723	2.0000
162.8000	68.0057	65.7780	61.8794	5.3710	2.0000
162.9000	68.0818	65.7165	62.0752	5.3697	2.0000
163.0000	68.1578	65.6550	62.2709	5.3684	2.0000
163.1000	68.2339	65.5935	62.4666	5.3671	2.0000
163.2000	68.3099	65.5320	62.6624	5.3658	2.0000
163.3000	68.3860	65.4705	62.8581	5.3645	2.0000
163.4000	68.4170	65.3694	62.9642	5.3632	2.0000
163.5000	68.3053	65.1428	62.7865	5.3619	2.0000
163.6000	68.1936	64.9162	62.6088	5.3606	2.0000
163.7000	68.0819	64.6896	62.4311	5.3593	2.0000
163.8000	67.9702	64.4630	62.2534	5.3580	2.0000
163.9000	67.8584	64.2364	62.0756	5.3567	2.0000
164.0000	67.7467	64.0098	61.8979	5.3554	2.0000
164.1000	67.6350	63.7832	61.7202	5.3541	2.0000
164.2000	67.5233	63.5566	61.5425	5.3528	2.0000
164.3000	67.4116	63.3300	61.3648	5.3515	2.0000
164.4000	67.2999	63.1034	61.1870	5.3502	2.0000
164.5000	67.1882	62.8768	61.0093	5.3489	2.0000
164.6000	67.1107	62.6880	60.8706	5.3476	2.0000
164.7000	67.2435	62.7311	60.9711	5.3463	2.0000
164.8000	67.3762	62.7743	61.0716	5.3450	2.0000
164.9000	67.5090	62.8174	61.1721	5.3422	2.0000
165.0000	67.6417	62.8606	61.2726	5.3387	2.0000
165.1000	67.7745	62.9038	61.3732	5.3351	2.0000
165.2000	67.9072	62.9469	61.4737	5.3315	2.0000
165.3000	68.0400	62.9901	61.5742	5.3280	2.0000
165.4000	68.1727	63.0332	61.6747	5.3244	2.0000
165.5000	68.3055	63.0764	61.7752	5.3208	2.0000
165.6000	68.4382	63.1195	61.8758	5.3173	2.0000
165.7000	68.5710	63.1627	61.9763	5.3137	2.0000
165.8000	68.7037	63.2058	62.0768	5.3101	2.0000
165.9000	68.6402	63.2418	62.0735	5.3066	2.0000
166.0000	68.4662	63.2737	62.0117	5.3030	2.0000
166.1000	68.2923	63.3056	61.9499	5.2994	2.0000
166.2000	68.1184	63.3375	61.8882	5.2959	2.0000
166.3000	67.9444	63.3694	61.8264	5.2923	2.0000
166.4000	67.7705	63.4012	61.7646	5.2887	2.0000
166.5000	67.5966	63.4331	61.7029	5.2852	2.0000
166.6000	67.4226	63.4650	61.6411	5.2816	2.0000
166.7000	67.2487	63.4969	61.5793	5.2780	2.0000
166.8000	67.0747	63.5288	61.5176	5.2745	2.0000
166.9000	66.9008	63.5607	61.4558	5.2709	2.0000
167.0000	66.7269	63.5926	61.3940	5.2673	2.0000
167.1000	66.6215	63.6413	61.4205	5.2638	2.0000
167.2000	66.6035	63.7114	61.5594	5.2602	2.0000
167.3000	66.5854	63.7816	61.6983	5.2566	2.0000
167.4000	66.5674	63.8517	61.8372	5.2531	2.0000
167.5000	66.5493	63.9218	61.9761	5.2495	2.0000
167.6000	66.5313	63.9919	62.1149	5.2459	2.0000
167.7000	66.5132	64.0621	62.2538	5.2424	2.0000
167.8000	66.4952	64.1322	62.3927	5.2388	2.0000
167.9000	66.4771	64.2023	62.5316	5.2358	2.0000
168.0000	66.4591	64.2725	62.6705	5.2391	2.0000
168.1000	66.4410	64.3426	62.8094	5.2424	2.0000
168.2000	66.4230	64.4127	62.9482	5.2457	2.0000
168.3000	66.4379	64.5237	63.0803	5.2490	2.0000
168.4000	66.5114	64.7072	63.2001	5.2523	2.0000
168.5000	66.5849	64.8907	63.3200	5.2556	2.0000
168.6000	66.6584	65.0741	63.4399	5.2589	2.0000
168.7000	66.7319	65.2576	63.5597	5.2623	2.0000
168.8000	66.8054	65.4411	63.6796	5.2656	2.0000
168.9000	66.8789	65.6246	63.7995	5.2689	2.0000
169.0000	66.9525	65.8081	63.9193	5.2722	2.0000
169.1000	67.0260	65.9916	64.0392	5.2755	2.0000
169.2000	67.0995	66.1751	64.1591	5.2788	2.0000
169.3000	67.1730	66.3586	64.2789	5.2821	2.0000
169.4000	67.2465	66.5421	64.3988	5.2854	2.0000
169.5000	67.3121	66.7127	64.5015	5.2887	2.0000
169.6000	67.1871	66.5744	64.1928	5.2920	2.0000
169.7000	67.0621	66.4361	63.8842	5.2953	2.0000
169.8000	66.9371	66.2977	63.5755	5.2986	2.0000
169.9000	66.8122	66.1594	63.2668	5.3019	2.0000
170.0000	66.6872	66.0211	62.9581	5.3053	2.0000
170.1000	66.5622	65.8827	62.6494	5.3086	2.0000
170.2000	66.4372	65.7444	62.3407	5.3119	2.0000
170.3000	66.3122	65.6060	62.0320	5.3152	2.0000
170.4000	66.1872	65.4677	61.7233	5.3185	2.0000
170.5000	66.0623	65.3294	61.4146	5.3218	2.0000
170.6000	65.9373	65.1910	61.1060	5.3251	2.0000
170.7000	65.8443	65.0788	60.8566	5.3284	2.0000
170.8000	65.9856	65.1575	61.0424	5.3317	2.0000
170.9000	66.1269	65.2362	61.2282	5.3350	2.0000
171.0000	66.2683	65.3150	61.4140	5.3383	2.0000
171.1000	66.4096	65.3937	61.5998	5.3401	2.0000
171.2000	66.5510	65.4725	61.7856	5.3404	2.0000
171.3000	66.6923	65.5512	61.9713	5.3408	2.0000
171.4000	66.8337	65.6300	62.1571	5.3411	2.0000
171.5000	66.9750	65.7087	62.3429	5.3414	2.0000
171.6000	67.1164	65.7875	62.5287	5.3418	2.0000
171.7000	67.2577	65.8662	62.7145	5.3421	2.0000
171.8000	67.3990	65.9450	62.9003	5.3424	2.0000
171.9000	67.5404	66.0237	63.0861	5.3428	2.0000
172.0000	67.5157	65.9179	63.0312	5.3431	2.0000
172.1000	67.4840	65.8044	62.9663	5.3434	2.0000
172.2000	67.4524	65.6909	62.9013	5.3438	2.0000
172.3000	67.4208	65.5774	62.8364	5.3441	2.0000
172.4000	67.3891	65.4639	62.7715	5.3444	2.0000
172.5000	67.3575	65.3504	62.7066	5.3448	2.0000
172.6000	67.3259	65.2369	62.6416	5.3451	2.0000
172.7000	67.2942	65.1234	62.5767	5.3454	2.0000
172.8000	67.2626	65.0099	62.5118	5.3458	2.0000
172.9000	67.2310	64.8964	62.4469	5.3461	2.0000
173.0000	67.1993	64.7829	62.3819	5.3464	2.0000
173.1000	67.1677	64.6694	62.3170	5.3468	2.0000
173.2000	67.1505	64.5825	62.1935	5.3471	2.0000
173.3000	67.1348	64.4986	62.0635	5.3474	2.0000
173.4000	67.1192	64.4146	61.9335	5.3478	2.0000
173.5000	67.1035	64.3307	61.8035	5.3481	2.0000
173.6000	67.0878	64.2467	61.6736	5.3484	2.0000
173.7000	67.0722	64.1628	61.5436	5.3488	2.0000
173.8000	67.0565	64.0788	61.4136	5.3491	2.0000
173.9000	67.0409	63.9949	61.2836	5.3494	2.0000
174.0000	67.0252	63.9109	61.1536	5.3498	2.0000
174.1000	67.0096	63.8270	61.0236	5.3501	2.0000
174.2000	66.9939	63.7431	60.8936	5.3500	2.0000
174.3000	67.0262	63.7130	60.8117	5.3498	2.0000
174.4000	67.2282	63.8741	60.9004	5.3497	2.0000
174.5000	67.4302	64.0353	60.9890	5.3495	2.0000
174.6000	67.6322	64.1964	61.0776	5.3494	2.0000
174.7000	67.8342	64.3575	61.1663	5.3492	2.0000
174.8000	68.0363	64.5186	61.2549	5.3491	2.0000
174.9000	68.2383	64.6798	61.3436	5.3489	2.0000
175.0000	68.4403	64.8409	61.4322	5.3488	2.0000
175.1000	68.6423	65.0020	61.5208	5.3486	2.0000
175.2000	68.8444	65.1631	61.6095	5.3485	2.0000
175.3000	69.0464	65.3243	61.6981	5.3483	2.0000
175.4000	69.2484	65.4854	61.7868	5.3481	2.0000
175.5000	69.4504	65.6465	61.8754	5.3480	2.0000
175.6000	69.4487	65.4293	61.7438	5.3478	2.0000
175.7000	69.4292	65.1792	61.5930	5.3477	2.0000
175.8000	69.4097	64.9291	61.4422	5.3475	2.0000
175.9000	69.3902	64.6790	61.2914	5.3474	2.0000
176.0000	69.3707	64.4289	61.1407	5.3472	2.0000
176.1000	69.3513	64.1788	60.9899	5.3471	2.0000
176.2000	69.3318	63.9287	60.8391	5.3469	2.0000
176.3000	69.3123	63.6786	60.6883	5.3468	2.0000
176.4000	69.2928	63.4285	60.5375	5.3466	2.0000
176.5000	69.2733	63.1784	60.3868	5.3464	2.0000
176.6000	69.2539	62.9283	60.2360	5.3463	2.0000
176.7000	69.2344	62.6782	60.0852	5.3461	2.0000
176.8000	69.2449	62.5653	60.0609	5.3460	2.0000
176.9000	69.2619	62.4827	60.0644	5.3458	2.0000
177.0000	69.2790	62.4000	60.0679	5.3457	2.0000
177.1000	69.2960	62.3173	60.0714	5.3455	2.0000
177.2000	69.3131	62.2346	60.0749	5.3454	2.0000
177.3000	69.3301	62.1519	60.0784	5.3452	2.0000
177.4000	69.3472	62.0692	60.0819	5.3451	2.0000
177.5000	69.3643	61.9865	60.0853	5.3449	2.0000
177.6000	69.3813	61.9038	60.0888	5.3447	2.0000
177.7000	69.3984	61.8211	60.0923	5.3446	2.0000
177.8000	69.4154	61.7384	60.0958	5.3459	2.0000
177.9000	69.4325	61.6557	60.0993	5.3473	2.0000
178.0000	69.5170	61.7753	60.3051	5.3487	2.0000
178.1000	69.6185	61.9456	60.5615	5.3501	2.0000
178.2000	69.7199	62.1158	60.8180	5.3515	2.0000
178.3000	69.8213	62.2861	61.0744	5.3529	2.0000
178.4000	69.9228	62.4563	61.3308	5.3543	2.0000
178.5000	70.0242	62.6266	61.5872	5.3557	2.0000
178.6000	70.1256	62.7968	61.8436	5.3571	2.0000
178.7000	70.2271	62.9671	62.1001	5.3585	2.0000
178.8000	70.3285	63.1373	62.3565	5.3599	2.0000
178.9000	70.4299	63.3076	62.6129	5.3613	2.0000
179.0000	70.5314	63.4778	62.8693	5.3627	2.0000
179.1000	70.6328	63.6480	63.1257	5.3641	2.0000
179.2000	70.6017	63.7103	63.1766	5.3655	2.0000
179.3000	70.4381	63.6645	63.0218	5.3669	2.0000
179.4000	70.2745	63.6187	62.8671	5.3683	2.0000
179.5000	70.1109	63.5729	62.7124	5.3697	2.0000
179.6000	69.9473	63.5271	62.5576	5.3711	2.0000
179.7000	69.7836	63.4814	62.4029	5.3725	2.0000
179.8000	69.6200	63.4356	62.2482	5.3739	2.0000
179.9000	69.4564	63.3898	62.0935	5.3753	2.0000
180.0000	69.2928	63.3440	61.9387	5.3767	2.0000
180.1000	69.1292	63.2982	61.7840	5.3781	2.0000
180.2000	68.9656	63.2524	61.6293	5.3795	2.0000
180.3000	68.8020	63.2066	61.4745	5.3809	2.0000
180.4000	68.8142	63.3012	61.6000	5.3823	2.0000
180.5000	68.9437	63.4892	61.9123	5.3837	2.0000
180.6000	69.0731	63.6773	62.2245	5.3851	2.0000
180.7000	69.2026	63.8653	62.5368	5.3865	2.0000
180.8000	69.3321	64.0534	62.8491	5.3879	2.0000
180.9000	69.4615	64.2414	63.1613	5.3879	2.0000
181.0000	69.5910	64.4294	63.4736	5.3878	2.0000
181.1000	69.7205	64.6175	63.7859	5.3876	2.0000
181.2000	69.8499	64.8055	64.0981	5.3875	2.0000
181.3000	69.9794	64.9936	64.4104	5.3873	2.0000
181.4000	70.1089	65.1816	64.7227	5.3872	2.0000
181.5000	70.2383	65.3697	65.0349	5.3870	2.0000
181.6000	70.3165	65.5773	65.2445	5.3869	2.0000
181.7000	70.3293	65.8097	65.3234	5.3868	2.0000
181.8000	70.3421	66.0421	65.4023	5.3866	2.0000
181.9000	70.3548	66.2745	65.4812	5.3865	2.0000
182.0000	70.3676	66.5069	65.5601	5.3863	2.0000
182.1000	70.3804	66.7394	65.6390	5.3862	2.0000
182.2000	70.3932	66.9718	65.7179	5.3861	2.0000
182.3000	70.4060	67.2042	65.7968	5.3859	2.0000
182.4000	70.4188	67.4366	65.8757	5.3858	2.0000
182.5000	70.4316	67.6691	65.9546	5.3856	2.0000
182.6000	70.4444	67.9015	66.0335	5.3855	2.0000
182.7000	70.4572	68.1339	66.1124	5.3853	2.0000
182.8000	70.4634	68.3506	66.1775	5.3852	2.0000
182.9000	70.3119	68.1883	65.9121	5.3851	2.0000
183.0000	70.1605	68.0260	65.6467	5.3849	2.0000
183.1000	70.0090	67.8638	65.3813	5.3848	2.0000
183.2000	69.8575	67.7015	65.1158	5.3846	2.0000
183.3000	69.7060	67.5392	64.8504	5.3845	2.0000
183.4000	69.5546	67.3770	64.5850	5.3843	2.0000
183.5000	69.4031	67.2147	64.3196	5.3842	2.0000
183.6000	69.2516	67.0524	64.0542	5.3841	2.0000
183.7000	69.1001	66.8902	63.7888	5.3839	2.0000
183.8000	68.9487	66.7279	63.5234	5.3838	2.0000
183.9000	68.7972	66.5656	63.2580	5.3836	2.0000
184.0000	68.6869	66.4486	63.0679	5.3835	2.0000
184.1000	68.7646	66.5372	63.2214	5.3834	2.0000
184.2000	68.8422	66.6259	63.3749	5.3832	2.0000
184.3000	68.9198	66.7145	63.5284	5.3831	2.0000
184.4000	68.9975	66.8032	63.6819	5.3830	2.0000
184.5000	69.0751	66.8918	63.8354	5.3832	2.0000
184.6000	69.1527	66.9805	63.9889	5.3835	2.0000
184.7000	69.2303	67.0691	64.1423	5.3837	2.0000
184.8000	69.3080	67.1578	64.2958	5.3840	2.0000
184.9000	69.3856	67.2464	64.4493	5.3842	2.0000
185.0000	69.4632	67.3351	64.6028	5.3844	2.0000
185.1000	69.5408	67.4238	64.7563	5.3847	2.0000
185.2000	69.6185	67.5124	64.9098	5.3849	2.0000
185.3000	69.5458	67.5204	64.7925	5.3852	2.0000
185.4000	69.4307	67.5055	64.5989	5.3854	2.0000
185.5000	69.3156	67.4907	64.4054	5.3856	2.0000
185.6000	69.2005	67.4759	64.2118	5.3859	2.0000
185.7000	69.0854	67.4611	64.0182	5.3861	2.0000
185.8000	68.9703	67.4463	63.8246	5.3864	2.0000
185.9000	68.8552	67.4315	63.6310	5.3866	2.0000
186.0000	68.7402	67.4167	63.4374	5.3868	2.0000
186.1000	68.6251	67.4018	63.2438	5.3871	2.0000
186.2000	68.5100	67.3870	63.0502	5.3873	2.0000
186.3000	68.3949	67.3722	62.8566	5.3876	2.0000
186.4000	68.2798	67.3574	62.6630	5.3878	2.0000
186.5000	68.1392	67.2787	62.5129	5.3880	2.0000
186.6000	67.9634	67.1118	62.4228	5.3883	2.0000
186.7000	67.7876	66.9449	62.3327	5.3885	2.0000
186.8000	67.6117	66.7779	62.2427	5.3888	2.0000
186.9000	67.4359	66.6110	62.1526	5.3890	2.0000
187.0000	67.2601	66.4441	62.0625	5.3892	2.0000
187.1000	67.0843	66.2772	61.9724	5.3895	2.0000
187.2000	66.9085	66.1103	61.8823	5.3897	2.0000
187.3000	66.7327	65.9433	61.7923	5.3899	2.0000
187.4000	66.5568	65.7764	61.7022	5.3902	2.0000
187.5000	66.3810	65.6095	61.6121	5.3904	2.0000
187.6000	66.2052	65.4426	61.5220	5.3907	2.0000
187.7000	66.2794	65.5387	61.5598	5.3909	2.0000
187.8000	66.4160	65.7005	61.6296	5.3903	2.0000
187.9000	66.5527	65.8624	61.6994	5.3891	2.0000
188.0000	66.6893	66.0242	61.7692	5.3879	2.0000
188.1000	66.8260	66.1861	61.8390	5.3867	2.0000
188.2000	66.9626	66.3479	61.9088	5.3855	2.0000
188.3000	67.0993	66.5098	61.9786	5.3843	2.0000
188.4000	67.2359	66.6716	62.0484	5.3831	2.0000
188.5000	67.3726	66.8335	62.1181	5.3819	2.0000
188.6000	67.5092	66.9954	62.1879	5.3807	2.0000
188.7000	67.6458	67.1572	62.2577	5.3795	2.0000
188.8000	67.7825	67.3191	62.3275	5.3783	2.0000
188.9000	67.8534	67.4476	62.2914	5.3772	2.0000
189.0000	67.9201	67.5740	62.2484	5.3760	2.0000
189.1000	67.9868	67.7004	62.2055	5.3748	2.0000
189.2000	68.0535	67.8268	62.1626	5.3736	2.0000
189.3000	68.1202	67.9532	62.1197	5.3724	2.0000
189.4000	68.1869	68.0795	62.0768	5.3712	2.0000
189.5000	68.2536	68.2059	62.0339	5.3700	2.0000
189.6000	68.3203	68.3323	61.9910	5.3688	2.0000
189.7000	68.3870	68.4587	61.9481	5.3676	2.0000
189.8000	68.4537	68.5851	61.9051	5.3664	2.0000
189.9000	68.5204	68.7115	61.8622	5.3652	2.0000
190.0000	68.5975	68.8030	61.8681	5.3640	2.0000
190.1000	68.6986	68.8131	61.9876	5.3628	2.0000
190.2000	68.7998	68.8232	62.1072	5.3616	2.0000
190.3000	68.9009	68.8333	62.2268	5.3604	2.0000
190.4000	69.0021	68.8435	62.3463	5.3592	2.0000
190.5000	69.1032	68.8536	62.4659	5.3580	2.0000
190.6000	69.2044	68.8637	62.5855	5.3569	2.0000
190.7000	69.3056	68.8738	62.7050	5.3557	2.0000
190.8000	69.4067	68.8839	62.8246	5.3545	2.0000
190.9000	69.5079	68.8940	62.9442	5.3533	2.0000
191.0000	69.6090	68.9041	63.0637	5.3513	2.0000
191.1000	69.7413	68.9189	63.1715	5.3481	2.0000
191.2000	70.0368	68.9585	63.2174	5.3449	2.0000
191.3000	70.3324	68.9981	63.2633	5.3417	2.0000
191.4000	70.6280	69.0377	63.3092	5.3385	2.0000
191.5000	70.9235	69.0773	63.3551	5.3353	2.0000
191.6000	71.2191	69.1168	63.4010	5.3321	2.0000
191.7000	71.5146	69.1564	63.4469	5.3289	2.0000
191.8000	71.8102	69.1960	63.4928	5.3257	2.0000
191.9000	72.1057	69.2356	63.5387	5.3226	2.0000
192.0000	72.4013	69.2752	63.5846	5.3194	2.0000
192.1000	72.6968	69.3147	63.6305	5.3162	2.0000
192.2000	72.9924	69.3543	63.6764	5.3130	2.0000
192.3000	73.2186	69.3431	63.7051	5.3098	2.0000
192.4000	73.2829	69.2134	63.6936	5.3066	2.0000
192.5000	73.3473	69.0837	63.6820	5.3034	2.0000
192.6000	73.4116	68.9540	63.6705	5.3002	2.0000
192.7000	73.4760	68.8244	63.6590	5.2970	2.0000
192.8000	73.5403	68.6947	63.6474	5.2938	2.0000
192.9000	73.6047	68.5650	63.6359	5.2906	2.0000
193.0000	73.6690	68.4353	63.6244	5.2874	2.0000
193.1000	73.7333	68.3056	63.6128	5.2843	2.0000
193.2000	73.7977	68.1759	63.6013	5.2811	2.0000
193.3000	73.8620	68.0462	63.5898	5.2779	2.0000
193.4000	73.9264	67.9165	63.5782	5.2747	2.0000
193.5000	73.9907	67.7868	63.5667	5.2715	2.0000
193.6000	73.9170	67.4624	63.4214	5.2683	2.0000
193.7000	73.8244	67.1114	63.2579	5.2651	2.0000
193.8000	73.7318	66.7604	63.0944	5.2619	2.0000
193.9000	73.6392	66.4094	62.9309	5.2587	2.0000
194.0000	73.5466	66.0583	62.7674	5.2555	2.0000
194.1000	73.4540	65.7073	62.6039	5.2523	2.0000
194.2000	73.3614	65.3563	62.4403	5.2491	2.0000
194.3000	73.2688	65.0053	62.2768	5.2460	2.0000
194.4000	73.1762	64.6543	62.1133	5.2428	2.0000
194.5000	73.0837	64.3033	61.9498	5.2396	2.0000
194.6000	72.9911	63.9523	61.7863	5.2364	2.0000
194.7000	72.8985	63.6013	61.6228	5.2332	2.0000
194.8000	72.9404	63.5330	61.6885	5.2322	2.0000
194.9000	73.0119	63.5269	61.8046	5.2325	2.0000
195.0000	73.0834	63.5207	61.9207	5.2328	2.0000
195.1000	73.1549	63.5145	62.0369	5.2331	2.0000
195.2000	73.2264	63.5083	62.1530	5.2334	2.0000
195.3000	73.2979	63.5021	62.2691	5.2338	2.0000
195.4000	73.3694	63.4960	62.3852	5.2341	2.0000
195.5000	73.4409	63.4898	62.5013	5.2344	2.0000
195.6000	73.5124	63.4836	62.6174	5.2347	2.0000
195.7000	73.5839	63.4774	62.7335	5.2350	2.0000
195.8000	73.6554	63.4712	62.8496	5.2353	2.0000
195.9000	73.7269	63.4651	62.9657	5.2356	2.0000
196.0000	73.7473	63.4367	62.9952	5.2359	2.0000
196.1000	73.6056	63.3379	62.7506	5.2362	2.0000
196.2000	73.4639	63.2391	62.5061	5.2365	2.0000
196.3000	73.3222	63.1403	62.2615	5.2368	2.0000
196.4000	73.1805	63.0415	62.0169	5.2371	2.0000
196.5000	73.0388	62.9428	61.7724	5.2374	2.0000
196.6000	72.8971	62.8440	61.5278	5.2377	2.0000
196.7000	72.7554	62.7452	61.2832	5.2380	2.0000
196.8000	72.6137	62.6464	61.0387	5.2383	2.0000
196.9000	72.4720	62.5477	60.7941	5.2386	2.0000
197.0000	72.3303	62.4489	60.5495	5.2389	2.0000
197.1000	72.1886	62.3501	60.3050	5.2392	2.0000
197.2000	72.0469	62.2513	60.0604	5.2395	2.0000
197.3000	71.9310	62.0916	59.9006	5.2398	2.0000
197.4000	71.8223	61.9147	59.7647	5.2401	2.0000
197.5000	71.7137	61.7378	59.6287	5.2404	2.0000
197.6000	71.6050	61.5609	59.4928	5.2407	2.0000
197.7000	71.4963	61.3840	59.3569	5.2411	2.0000
197.8000	71.3877	61.2071	59.2210	5.2414	2.0000
197.9000	71.2790	61.0302	59.0851	5.2417	2.0000
198.0000	71.1703	60.8532	58.9492	5.2420	2.0000
198.1000	71.0617	60.6763	58.8132	5.2421	2.0000
198.2000	70.9530	60.4994	58.6773	5.2399	2.0000
198.3000	70.8443	60.3225	58.5414	5.2378	2.0000
198.4000	70.7357	60.1456	58.4055	5.2356	2.0000
198.5000	70.7143	60.1075	58.3891	5.2335	2.0000
198.6000	70.7420	60.1475	58.4400	5.2314	2.0000
198.7000	70.7697	60.1875	58.4909	5.2292	2.0000
198.8000	70.7974	60.2276	58.5418	5.2271	2.0000
198.9000	70.8251	60.2676	58.5926	5.2249	2.0000
199.0000	70.8527	60.3076	58.6435	5.2228	2.0000
199.1000	70.8804	60.3476	58.6944	5.2206	2.0000
199.2000	70.9081	60.3876	58.7453	5.2185	2.0000
199.3000	70.9358	60.4276	58.7962	5.2164	2.0000
199.4000	70.9635	60.4676	58.8471	5.2142	2.0000
199.5000	70.9912	60.5076	58.8979	5.2121	2.0000
199.6000	71.0189	60.5476	58.9488	5.2099	2.0000
199.7000	70.9893	60.5512	58.9864	5.2078	2.0000
199.8000	70.7965	60.4511	58.9863	5.2056	2.0000
199.9000	70.6037	60.3509	58.9861	5.2035	2.0000
200.0000	70.4109	60.2508	58.9860	5.2014	2.0000
200.1000	70.2181	60.1507	58.9858	5.1992	2.0000
200.2000	70.0253	60.0506	58.9857	5.1971	2.0000
200.3000	69.8325	59.9504	58.9855	5.1949	2.0000
200.4000	69.6397	59.8503	58.9854	5.1928	2.0000
200.5000	69.4469	59.7502	58.9852	5.1906	2.0000
200.6000	69.2541	59.6501	58.9850	5.1885	2.0000
200.7000	69.0613	59.5499	58.9849	5.1864	2.0000
200.8000	68.8685	59.4498	58.9847	5.1842	2.0000
200.9000	68.8150	59.4735	59.0378	5.1821	2.0000
201.0000	68.9538	59.6682	59.1645	5.1799	2.0000
201.1000	69.0926	59.8630	59.2912	5.1778	2.0000
201.2000	69.2315	60.0577	59.4179	5.1756	2.0000
201.3000	69.3703	60.2524	59.5445	5.1735	2.0000
201.4000	69.5091	60.4471	59.6712	5.1714	2.0000
201.5000	69.6479	60.6418	59.7979	5.1701	2.0000
201.6000	69.7867	60.8366	59.9246	5.1717	2.0000
201.7000	69.9255	61.0313	60.0512	5.1733	2.0000
201.8000	70.0644	61.2260	60.1779	5.1749	2.0000
201.9000	70.2032	61.4207	60.3046	5.1764	2.0000
202.0000	70.3420	61.6154	60.4312	5.1780	2.0000
202.1000	70.4164	61.7444	60.5554	5.1796	2.0000
202.2000	70.4401	61.8219	60.6775	5.1812	2.0000
202.3000	70.4638	61.8993	60.7996	5.1828	2.0000
202.4000	70.4875	61.9767	60.9217	5.1844	2.0000
202.5000	70.5112	62.0541	61.0438	5.1860	2.0000
202.6000	70.5349	62.1315	61.1659	5.1875	2.0000
202.7000	70.5586	62.2089	61.2880	5.1891	2.0000
202.8000	70.5824	62.2863	61.4101	5.1907	2.0000
202.9000	70.6061	62.3637	61.5322	5.1923	2.0000
203.0000	70.6298	62.4411	61.6543	5.1939	2.0000
203.1000	70.6535	62.5185	61.7764	5.1955	2.0000
203.2000	70.6772	62.5959	61.8985	5.1971	2.0000
203.3000	70.6077	62.5625	61.8919	5.1986	2.0000
203.4000	70.4650	62.4421	61.7841	5.2002	2.0000
203.5000	70.3222	62.3216	61.6763	5.2018	2.0000
203.6000	70.1794	62.2011	61.5685	5.2034	2.0000
203.7000	70.0367	62.0807	61.4607	5.2050	2.0000
203.8000	69.8939	61.9602	61.3529	5.2066	2.0000
203.9000	69.7512	61.8398	61.2451	5.2081	2.0000
204.0000	69.6084	61.7193	61.1373	5.2097	2.0000
204.1000	69.4656	61.5988	61.0295	5.2113	2.0000
204.2000	69.3229	61.4784	60.9217	5.2129	2.0000
204.3000	69.1801	61.3579	60.8139	5.2145	2.0000
204.4000	69.0374	61.2375	60.7061	5.2161	2.0000
204.5000	69.1695	61.3043	60.7772	5.2177	2.0000
204.6000	69.3191	61.3831	60.8598	5.2192	2.0000
204.7000	69.4688	61.4618	60.9423	5.2208	2.0000
204.8000	69.6185	61.5406	61.0249	5.2230	2.0000
204.9000	69.7681	61.6194	61.1075	5.2268	2.0000
205.0000	69.9178	61.6981	61.1900	5.2305	2.0000
205.1000	70.0675	61.7769	61.2726	5.2342	2.0000
205.2000	70.2171	61.8557	61.3551	5.2380	2.0000
205.3000	70.3668	61.9345	61.4377	5.2417	2.0000
205.4000	70.5164	62.0132	61.5203	5.2454	2.0000
205.5000	70.6661	62.0920	61.6028	5.2492	2.0000
205.6000	70.8158	62.1708	61.6854	5.2529	2.0000
205.7000	70.7873	62.0555	61.5954	5.2566	2.0000
205.8000	70.7390	61.9187	61.4862	5.2604	2.0000
205.9000	70.6908	61.7819	61.3771	5.2641	2.0000
206.0000	70.6425	61.6451	61.2679	5.2678	2.0000
206.1000	70.5942	61.5083	61.1587	5.2716	2.0000
206.2000	70.5460	61.3714	61.0496	5.2753	2.0000
206.3000	70.4977	61.2346	60.9404	5.2790	2.0000
206.4000	70.4494	61.0978	60.8312	5.2828	2.0000
206.5000	70.4011	60.9610	60.7221	5.2865	2.0000
206.6000	70.3529	60.8242	60.6129	5.2903	2.0000
206.7000	70.3046	60.6874	60.5037	5.2940	2.0000
206.8000	70.2563	60.5505	60.3946	5.2977	2.0000
206.9000	70.1377	60.3572	60.1429	5.3015	2.0000
207.0000	70.0015	60.1497	59.8557	5.3052	2.0000
207.1000	69.8653	59.9422	59.5684	5.3089	2.0000
207.2000	69.7291	59.7347	59.2811	5.3127	2.0000
207.3000	69.5928	59.5272	58.9939	5.3164	2.0000
207.4000	69.4566	59.3197	58.7066	5.3201	2.0000
207.5000	69.3204	59.1122	58.4194	5.3239	2.0000
207.6000	69.1842	58.9048	58.1321	5.3276	2.0000
207.7000	69.0480	58.6973	57.8449	5.3313	2.0000
207.8000	68.9118	58.4898	57.5576	5.3351	2.0000
207.9000	68.7755	58.2823	57.2703	5.3388	2.0000
208.0000	68.6393	58.0748	56.9831	5.3423	2.0000
208.1000	68.7066	58.1881	57.0497	5.3427	2.0000
208.2000	68.7740	58.3014	57.1162	5.3431	2.0000
208.3000	68.8413	58.4148	57.1828	5.3434	2.0000
208.4000	68.9086	58.5281	57.2494	5.3438	2.0000
208.5000	68.9759	58.6414	57.3160	5.3442	2.0000
208.6000	69.0432	58.7547	57.3826	5.3446	2.0000
208.7000	69.1106	58.8680	57.4491	5.3450	2.0000
208.8000	69.1779	58.9814	57.5157	5.3454	2.0000
208.9000	69.2452	59.0947	57.5823	5.3457	2.0000
209.0000	69.3125	59.2080	57.6489	5.3461	2.0000
209.1000	69.3798	59.3213	57.7155	5.3465	2.0000
209.2000	69.4472	59.4346	57.7821	5.3469	2.0000
209.3000	69.3720	59.4316	57.6393	5.3473	2.0000
209.4000	69.2656	59.4031	57.4505	5.3477	2.0000
209.5000	69.1593	59.3746	57.2618	5.3481	2.0000
209.6000	69.0529	59.3460	57.0730	5.3484	2.0000
209.7000	68.9465	59.3175	56.8843	5.3488	2.0000
209.8000	68.8401	59.2889	56.6956	5.3492	2.0000
209.9000	68.7337	59.2604	56.5068	5.3496	2.0000
210.0000	68.6273	59.2318	56.3181	5.3500	2.0000
210.1000	68.5209	59.2033	56.1293	5.3504	2.0000
210.2000	68.4145	59.1748	55.9406	5.3507	2.0000
210.3000	68.3081	59.1462	55.7519	5.3511	2.0000
210.4000	68.2017	59.1177	55.5631	5.3515	2.0000
210.5000	68.0766	59.0477	55.5078	5.3519	2.0000
210.6000	67.9456	58.9646	55.4945	5.3523	2.0000
210.7000	67.8146	58.8815	55.4813	5.3527	2.0000
210.8000	67.6837	58.7984	55.4680	5.3531	2.0000
210.9000	67.5527	58.7153	55.4548	5.3534	2.0000
211.0000	67.4217	58.6322	55.4416	5.3538	2.0000
211.1000	67.2907	58.5491	55.4283	5.3542	2.0000
211.2000	67.1597	58.4660	55.4151	5.3546	2.0000
211.3000	67.0287	58.3829	55.4018	5.3550	2.0000
211.4000	66.8978	58.2998	55.3886	5.3554	2.0000
211.5000	66.7668	58.2167	55.3754	5.3549	2.0000
211.6000	66.6358	58.1336	55.3621	5.3532	2.0000
211.7000	66.7093	58.3918	55.6260	5.3516	2.0000
211.8000	66.7870	58.6569	55.8955	5.3499	2.0000
211.9000	66.8648	58.9220	56.1650	5.3482	2.0000
212.0000	66.9425	59.1871	56.4345	5.3465	2.0000
212.1000	67.0202	59.4522	56.7041	5.3448	2.0000
212.2000	67.0979	59.7174	56.9736	5.3431	2.0000
212.3000	67.1756	59.9825	57.2431	5.3414	2.0000
212.4000	67.2533	60.2476	57.5126	5.3398	2.0000
212.5000	67.3310	60.5127	57.7821	5.3381	2.0000
212.6000	67.4088	60.7778	58.0516	5.3364	2.0000
212.7000	67.4865	61.0430	58.3212	5.3347	2.0000
212.8000	67.5642	61.3081	58.5907	5.3330	2.0000
212.9000	67.4927	61.4408	58.6730	5.3313	2.0000
213.0000	67.4082	61.5620	58.7390	5.3296	2.0000
213.1000	67.3237	61.6831	58.8050	5.3280	2.0000
213.2000	67.2392	61.8043	58.8711	5.3263	2.0000
213.3000	67.1548	61.9255	58.9371	5.3246	2.0000
213.4000	67.0703	62.0467	59.0031	5.3229	2.0000
213.5000	66.9858	62.1679	59.0692	5.3212	2.0000
213.6000	66.9013	62.2891	59.1352	5.3195	2.0000
213.7000	66.8168	62.4103	59.2012	5.3179	2.0000
213.8000	66.7324	62.5314	59.2673	5.3162	2.0000
213.9000	66.6479	62.6526	59.3333	5.3145	2.0000
214.0000	66.5732	62.7523	59.4077	5.3128	2.0000
214.1000	66.5700	62.6945	59.5435	5.3111	2.0000
214.2000	66.5669	62.6366	59.6793	5.3094	2.0000
214.3000	66.5638	62.5787	59.8151	5.3077	2.0000
214.4000	66.5606	62.5208	59.9510	5.3061	2.0000
214.5000	66.5575	62.4629	60.0868	5.3044	2.0000
214.6000	66.5544	62.4051	60.2226	5.3027	2.0000
214.7000	66.5512	62.3472	60.3584	5.3010	2.0000
214.8000	66.5481	62.2893	60.4942	5.2999	2.0000
214.9000	66.5450	62.2314	60.6300	5.2995	2.0000
215.0000	66.5418	62.1736	60.7658	5.2992	2.0000
215.1000	66.5387	62.1157	60.9016	5.2988	2.0000
215.2000	66.5587	62.0914	61.0472	5.2985	2.0000
215.3000	66.6715	62.2015	61.2320	5.2981	2.0000
215.4000	66.7842	62.3116	61.4167	5.2978	2.0000
215.5000	66.8969	62.4217	61.6014	5.2974	2.0000
215.6000	67.0097	62.5319	61.7862	5.2970	2.0000
215.7000	67.1224	62.6420	61.9709	5.2967	2.0000
215.8000	67.2351	62.7521	62.1556	5.2963	2.0000
215.9000	67.3479	62.8622	62.3404	5.2960	2.0000
216.0000	67.4606	62.9723	62.5251	5.2956	2.0000
216.1000	67.5733	63.0824	62.7098	5.2953	2.0000
216.2000	67.6860	63.1926	62.8945	5.2949	2.0000
216.3000	67.7988	63.3027	63.0793	5.2945	2.0000
216.4000	67.9115	63.4128	63.2640	5.2942	2.0000
216.5000	67.8403	63.4276	63.1672	5.2938	2.0000
216.6000	67.7653	63.4406	63.0647	5.2935	2.0000
216.7000	67.6904	63.4535	62.9621	5.2931	2.0000
216.8000	67.6154	63.4664	62.8596	5.2928	2.0000
216.9000	67.5405	63.4793	62.7571	5.2924	2.0000
217.0000	67.4655	63.4922	62.6545	5.2920	2.0000
217.1000	67.3905	63.5052	62.5520	5.2917	2.0000
217.2000	67.3156	63.5181	62.4495	5.2913	2.0000
217.3000	67.2406	63.5310	62.3469	5.2910	2.0000
217.4000	67.1656	63.5439	62.2444	5.2906	2.0000
217.5000	67.0907	63.5568	62.1419	5.2903	2.0000
217.6000	67.0157	63.5698	62.0393	5.2899	2.0000
217.7000	67.0636	63.6132	62.0363	5.2895	2.0000
217.8000	67.1281	63.6609	62.0468	5.2892	2.0000
217.9000	67.1927	63.7086	62.0573	5.2888	2.0000
218.0000	67.2573	63.7562	62.0678	5.2885	2.0000
218.1000	67.3219	63.8039	62.0783	5.2881	2.0000
218.2000	67.3865	63.8515	62.0888	5.2900	2.0000
218.3000	67.4510	63.8992	62.0993	5.2959	2.0000
218.4000	67.5156	63.9468	62.1098	5.3019	2.0000
218.5000	67.5802	63.9945	62.1203	5.3078	2.0000
218.6000	67.6448	64.0421	62.1308	5.3137	2.0000
218.7000	67.7094	64.0898	62.1414	5.3196	2.0000
218.8000	67.7739	64.1374	62.1519	5.3255	2.0000
218.9000	67.7932	64.1775	62.0742	5.3315	2.0000
219.0000	67.7869	64.2132	61.9468	5.3374	2.0000
219.1000	67.7806	64.2490	61.8195	5.3433	2.0000
219.2000	67.7743	64.2847	61.6922	5.3492	2.0000
219.3000	67.7680	64.3205	61.5649	5.3552	2.0000
219.4000	67.7617	64.3562	61.4375	5.3611	2.0000
219.5000	67.7554	64.3920	61.3102	5.3670	2.0000
219.6000	67.7492	64.4277	61.1829	5.3729	2.0000
219.7000	67.7429	64.4635	61.0556	5.3788	2.0000
219.8000	67.7366	64.4992	60.9282	5.3848	2.0000
219.9000	67.7303	64.5350	60.8009	5.3907	2.0000
220.0000	67.7240	64.5707	60.6736	5.3966	2.0000
220.1000	67.7177	64.6065	60.5463	5.4025	2.0000
220.2000	67.5197	64.4572	60.1723	5.4085	2.0000
220.3000	67.3216	64.3079	59.7983	5.4144	2.0000
220.4000	67.1236	64.1586	59.4242	5.4203	2.0000
220.5000	66.9255	64.0094	59.0502	5.4262	2.0000
220.6000	66.7274	63.8601	58.6762	5.4322	2.0000
220.7000	66.5294	63.7108	58.3022	5.4381	2.0000
220.8000	66.3313	63.5616	57.9282	5.4440	2.0000
220.9000	66.1333	63.4123	57.5542	5.4499	2.0000
221.0000	65.9352	63.2630	57.1802	5.4558	2.0000
221.1000	65.7372	63.1137	56.8061	5.4618	2.0000
221.2000	65.5391	62.9645	56.4321	5.4677	2.0000
221.3000	65.3411	62.8152	56.0581	5.4736	2.0000
221.4000	65.3901	62.9034	56.0394	5.4795	2.0000
221.5000	65.4494	63.0016	56.0355	5.4855	2.0000
221.6000	65.5087	63.0997	56.0316	5.4914	2.0000
221.7000	65.5680	63.1979	56.0277	5.4973	2.0000
221.8000	65.6273	63.2960	56.0237	5.5009	2.0000
221.9000	65.6866	63.3941	56.0198	5.4997	2.0000
222.0000	65.7460	63.4923	56.0159	5.4985	2.0000
222.1000	65.8053	63.5904	56.0120	5.4973	2.0000
222.2000	65.8646	63.6885	56.0081	5.4961	2.0000
222.3000	65.9239	63.7867	56.0042	5.4948	2.0000
222.4000	65.9832	63.8848	56.0003	5.4936	2.0000
222.5000	66.0425	63.9829	55.9964	5.4924	2.0000
222.6000	66.0655	64.0802	56.1023	5.4912	2.0000
222.7000	66.0862	64.1775	56.2153	5.4900	2.0000
222.8000	66.1069	64.2748	56.3282	5.4887	2.0000
222.9000	66.1276	64.3720	56.4412	5.4875	2.0000
223.0000	66.1484	64.4693	56.5541	5.4863	2.0000
223.1000	66.1691	64.5665	56.6671	5.4851	2.0000
223.2000	66.1898	64.6638	56.7800	5.4839	2.0000
223.3000	66.2105	64.7611	56.8930	5.4826	2.0000
223.4000	66.2312	64.8583	57.0059	5.4814	2.0000
223.5000	66.2519	64.9556	57.1189	5.4802	2.0000
223.6000	66.2726	65.0528	57.2318	5.4790	2.0000
223.7000	66.2933	65.1501	57.3448	5.4778	2.0000
223.8000	66.2794	65.1472	57.4136	5.4765	2.0000
223.9000	66.2405	65.0718	57.4505	5.4753	2.0000
224.0000	66.2015	64.9964	57.4874	5.4741	2.0000
224.1000	66.1625	64.9210	57.5243	5.4729	2.0000
224.2000	66.1236	64.8456	57.5612	5.4717	2.0000
224.3000	66.0846	64.7702	57.5981	5.4704	2.0000
224.4000	66.0457	64.6948	57.6350	5.4692	2.0000
224.5000	66.0067	64.6194	57.6719	5.4680	2.0000
224.6000	65.9678	64.5440	57.7088	5.4668	2.0000
224.7000	65.9288	64.4686	57.7457	5.4656	2.0000
224.8000	65.8899	64.3932	57.7826	5.4643	2.0000
224.9000	65.8509	64.3178	57.8195	5.4631	2.0000
225.0000	65.8962	64.3593	57.9145	5.4619	2.0000
225.1000	66.0078	64.4927	58.0550	5.4607	2.0000
225.2000	66.1193	64.6260	58.1956	5.4595	2.0000
225.3000	66.2308	64.7594	58.3362	5.4582	2.0000
225.4000	66.3424	64.8928	58.4768	5.4570	2.0000
225.5000	66.4539	65.0261	58.6173	5.4558	2.0000
225.6000	66.5654	65.1595	58.7579	5.4544	2.0000
225.7000	66.6769	65.2928	58.8985	5.4528	2.0000
225.8000	66.7885	65.4262	59.0391	5.4511	2.0000
225.9000	66.9000	65.5595	59.1797	5.4494	2.0000
226.0000	67.0115	65.6929	59.3202	5.4478	2.0000
226.1000	67.1230	65.8263	59.4608	5.4461	2.0000
226.2000	67.2895	65.9590	59.6884	5.4444	2.0000
226.3000	67.4715	66.0916	59.9404	5.4427	2.0000
226.4000	67.6535	66.2242	60.1925	5.4411	2.0000
226.5000	67.8355	66.3567	60.4446	5.4394	2.0000
226.6000	68.0175	66.4893	60.6967	5.4377	2.0000
226.7000	68.1995	66.6219	60.9488	5.4360	2.0000
226.8000	68.3815	66.7545	61.2008	5.4344	2.0000
226.9000	68.5635	66.8870	61.4529	5.4327	2.0000
227.0000	68.7455	67.0196	61.7050	5.4310	2.0000
227.1000	68.9274	67.1522	61.9571	5.4294	2.0000
227.2000	69.1094	67.2848	62.2091	5.4277	2.0000
227.3000	69.2914	67.4173	62.4612	5.4260	2.0000
227.4000	69.3221	67.3381	62.4773	5.4243	2.0000
227.5000	69.2816	67.1593	62.3823	5.4227	2.0000
227.6000	69.2411	66.9804	62.2873	5.4210	2.0000
227.7000	69.2006	66.8016	62.1922	5.4193	2.0000
227.8000	69.1600	66.6227	62.0972	5.4177	2.0000
227.9000	69.1195	66.4439	62.0022	5.4160	2.0000
228.0000	69.0790	66.2650	61.9072	5.4143	2.0000
228.1000	69.0385	66.0861	61.8122	5.4126	2.0000
228.2000	68.9980	65.9073	61.7172	5.4110	2.0000
228.3000	68.9574	65.7284	61.6222	5.4093	2.0000
228.4000	68.9169	65.5496	61.5272	5.4076	2.0000
228.5000	68.8764	65.3707	61.4322	5.4060	2.0000
228.6000	68.9077	65.2169	61.3726	5.4043	2.0000
228.7000	68.9592	65.0702	61.3230	5.4026	2.0000
228.8000	69.0108	64.9235	61.2734	5.4009	2.0000
228.9000	69.0623	64.7768	61.2238	5.3993	2.0000
229.0000	69.1138	64.6301	61.1743	5.3976	2.0000
229.1000	69.1654	64.4834	61.1247	5.3959	2.0000
229.2000	69.2169	64.3367	61.0751	5.3942	2.0000
229.3000	69.2684	64.1900	61.0255	5.3926	2.0000
229.4000	69.3200	64.0433	60.9759	5.3934	2.0000
229.5000	69.3715	63.8967	60.9263	5.3956	2.0000
229.6000	69.4231	63.7500	60.8768	5.3978	2.0000
229.7000	69.4746	63.6033	60.8272	5.4000	2.0000
229.8000	69.4785	63.5127	60.8320	5.4022	2.0000
229.9000	69.4480	63.4628	60.8762	5.4045	2.0000
230.0000	69.4175	63.4129	60.9205	5.4067	2.0000
230.1000	69.3870	63.3630	60.9647	5.4089	2.0000
230.2000	69.3565	63.3131	61.0089	5.4111	2.0000
230.3000	69.3260	63.2632	61.0532	5.4133	2.0000
230.4000	69.2955	63.2133	61.0974	5.4155	2.0000
230.5000	69.2650	63.1634	61.1416	5.4177	2.0000
230.6000	69.2344	63.1135	61.1859	5.4200	2.0000
230.7000	69.2039	63.0636	61.2301	5.4222	2.0000
230.8000	69.1734	63.0137	61.2743	5.4244	2.0000
230.9000	69.1429	62.9638	61.3186	5.4266	2.0000
231.0000	69.0625	62.8685	61.3221	5.4288	2.0000
231.1000	68.8401	62.6439	61.2100	5.4310	2.0000
231.2000	68.6177	62.4194	61.0978	5.4332	2.0000
231.3000	68.3953	62.1949	60.9857	5.4355	2.0000
231.4000	68.1729	61.9704	60.8735	5.4377	2.0000
231.5000	67.9505	61.7458	60.7613	5.4399	2.0000
231.6000	67.7281	61.5213	60.6492	5.4421	2.0000
231.7000	67.5057	61.2968	60.5370	5.4443	2.0000
231.8000	67.2833	61.0723	60.4249	5.4465	2.0000
231.9000	67.0609	60.8477	60.3127	5.4487	2.0000
232.0000	66.8385	60.6232	60.2005	5.4510	2.0000
232.1000	66.6161	60.3987	60.0884	5.4532	2.0000
232.2000	66.5218	60.3958	60.0961	5.4554	2.0000
232.3000	66.6044	60.6991	60.2694	5.4576	2.0000
232.4000	66.6870	61.0024	60.4426	5.4598	2.0000
232.5000	66.7696	61.3057	60.6159	5.4590	2.0000
232.6000	66.8522	61.6090	60.7892	5.4553	2.0000
232.7000	66.9348	61.9123	60.9625	5.4517	2.0000
232.8000	67.0173	62.2156	61.1358	5.4480	2.0000
232.9000	67.0999	62.5189	61.3090	5.4444	2.0000
233.0000	67.1825	62.8222	61.4823	5.4407	2.0000
233.1000	67.2651	63.1255	61.6556	5.4370	2.0000
233.2000	67.3477	63.4288	61.8289	5.4334	2.0000
233.3000	67.4303	63.7321	62.0021	5.4297	2.0000
233.4000	67.4995	64.0025	62.1226	5.4261	2.0000
233.5000	67.5470	64.2191	62.1569	5.4224	2.0000
233.6000	67.5944	64.4357	62.1912	5.4188	2.0000
233.7000	67.6419	64.6523	62.2256	5.4151	2.0000
233.8000	67.6893	64.8689	62.2599	5.4114	2.0000
233.9000	67.7368	65.0856	62.2942	5.4078	2.0000
234.0000	67.7842	65.3022	62.3285	5.4041	2.0000
234.1000	67.8317	65.5188	62.3628	5.4005	2.0000
234.2000	67.8791	65.7354	62.3971	5.3968	2.0000
234.3000	67.9265	65.9520	62.4314	5.3932	2.0000
234.4000	67.9740	66.1687	62.4658	5.3895	2.0000
234.5000	67.9109	66.1512	62.4470	5.3859	2.0000
234.6000	67.7801	65.9904	62.3958	5.3822	2.0000
234.7000	67.6493	65.8295	62.3446	5.3785	2.0000
234.8000	67.5185	65.6686	62.2933	5.3749	2.0000
234.9000	67.3877	65.5077	62.2421	5.3712	2.0000
235.0000	67.2569	65.3469	62.1909	5.3676	2.0000
235.1000	67.1261	65.1860	62.1396	5.3639	2.0000
235.2000	66.9953	65.0251	62.0884	5.3603	2.0000
235.3000	66.8645	64.8642	62.0372	5.3566	2.0000
235.4000	66.7337	64.7034	61.9859	5.3530	2.0000
235.5000	66.6029	64.5425	61.9347	5.3493	2.0000
235.6000	66.4483	64.4218	61.8381	5.3456	2.0000
235.7000	66.2381	64.3948	61.6357	5.3420	2.0000
235.8000	66.0280	64.3677	61.4333	5.3383	2.0000
235.9000	65.8179	64.3407	61.2308	5.3347	2.0000
236.0000	65.6078	64.3137	61.0284	5.3310	2.0000
236.1000	65.3977	64.2867	60.8260	5.3274	2.0000
236.2000	65.1876	64.2597	60.6235	5.3237	2.0000
236.3000	64.9774	64.2326	60.4211	5.3201	2.0000
236.4000	64.7673	64.2056	60.2187	5.3164	2.0000
236.5000	64.5572	64.1786	60.0162	5.3127	2.0000
236.6000	64.3471	64.1516	59.8138	5.3091	2.0000
236.7000	64.1815	64.1451	59.6543	5.3054	2.0000
236.8000	64.3427	64.2891	59.8100	5.3018	2.0000
236.9000	64.5038	64.4330	59.9656	5.3039	2.0000
237.0000	64.6649	64.5770	60.1213	5.3093	2.0000
237.1000	64.8261	64.7210	60.2769	5.3146	2.0000
237.2000	64.9872	64.8650	60.4326	5.3200	2.0000
237.3000	65.1483	65.0090	60.5882	5.3253	2.0000
237.4000	65.3095	65.1529	60.7439	5.3307	2.0000
237.5000	65.4706	65.2969	60.8995	5.3361	2.0000
237.6000	65.6317	65.4409	61.0552	5.3414	2.0000
237.7000	65.7929	65.5849	61.2108	5.3468	2.0000
237.8000	65.9540	65.7289	61.3665	5.3522	2.0000
237.9000	66.0677	65.8461	61.5005	5.3575	2.0000
238.0000	66.1441	65.9422	61.6175	5.3629	2.0000
238.1000	66.2205	66.0384	61.7345	5.3682	2.0000
238.2000	66.2968	66.1346	61.8514	5.3736	2.0000
238.3000	66.3732	66.2308	61.9684	5.3790	2.0000
238.4000	66.4496	66.3269	62.0854	5.3843	2.0000
238.5000	66.5260	66.4231	62.2024	5.3897	2.0000
238.6000	66.6024	66.5193	62.3194	5.3951	2.0000
238.7000	66.6788	66.6155	62.4364	5.4004	2.0000
238.8000	66.7552	66.7116	62.5534	5.4058	2.0000
238.9000	66.8316	66.8078	62.6704	5.4111	2.0000
239.0000	66.9080	66.9040	62.7874	5.4165	2.0000
239.1000	66.9004	66.9009	62.7925	5.4219	2.0000
239.2000	66.8270	66.8198	62.7098	5.4272	2.0000
239.3000	66.7535	66.7387	62.6270	5.4326	2.0000
239.4000	66.6800	66.6576	62.5442	5.4380	2.0000
239.5000	66.6065	66.5766	62.4614	5.4433	2.0000
239.6000	66.5330	66.4955	62.3787	5.4487	2.0000
239.7000	66.4595	66.4144	62.2959	5.4540	2.0000
239.8000	66.3861	66.3333	62.2131	5.4594	2.0000
239.9000	66.3126	66.2522	62.1304	5.4648	2.0000
240.0000	66.2391	66.1711	62.0476	5.4701	2.0000
240.1000	66.1656	66.0900	61.9648	5.4755	2.0000
240.2000	66.0921	66.0089	61.8821	5.4809	2.0000
240.3000	66.3067	66.1632	62.0904	5.4862	2.0000
240.4000	66.5333	66.3273	62.3109	5.4916	2.0000
240.5000	66.7599	66.4914	62.5314	5.4969	2.0000
240.6000	66.9865	66.6555	62.7518	5.5008	2.0000
240.7000	67.2131	66.8196	62.9723	5.5012	2.0000
240.8000	67.4397	66.9837	63.1928	5.5017	2.0000
240.9000	67.6662	67.1478	63.4133	5.5022	2.0000
241.0000	67.8928	67.3118	63.6337	5.5027	2.0000
241.1000	68.1194	67.4759	63.8542	5.5032	2.0000
241.2000	68.3460	67.6400	64.0747	5.5037	2.0000
241.3000	68.5726	67.8041	64.2952	5.5042	2.0000
241.4000	68.7918	67.9636	64.5079	5.5047	2.0000
241.5000	68.8344	68.0130	64.5352	5.5052	2.0000
241.6000	68.8769	68.0624	64.5624	5.5057	2.0000
241.7000	68.9195	68.1118	64.5897	5.5062	2.0000
241.8000	68.9620	68.1612	64.6170	5.5067	2.0000
241.9000	69.0046	68.2106	64.6443	5.5072	2.0000
242.0000	69.0471	68.2601	64.6715	5.5077	2.0000
242.1000	69.0897	68.3095	64.6988	5.5082	2.0000
242.2000	69.1322	68.3589	64.7261	5.5087	2.0000
242.3000	69.1748	68.4083	64.7533	5.5091	2.0000
242.4000	69.2173	68.4577	64.7806	5.5096	2.0000
242.5000	69.2599	68.5071	64.8079	5.5101	2.0000
242.6000	69.3024	68.5565	64.8351	5.5106	2.0000
242.7000	69.2658	68.4314	64.7656	5.5111	2.0000
242.8000	69.2163	68.2779	64.6803	5.5116	2.0000
242.9000	69.1667	68.1244	64.5949	5.5121	2.0000
243.0000	69.1172	67.9709	64.5096	5.5126	2.0000
243.1000	69.0677	67.8173	64.4243	5.5131	2.0000
243.2000	69.0182	67.6638	64.3390	5.5136	2.0000
243.3000	68.9686	67.5103	64.2536	5.5141	2.0000
243.4000	68.9191	67.3568	64.1683	5.5146	2.0000
243.5000	68.8696	67.2033	64.0830	5.5151	2.0000
243.6000	68.8201	67.0498	63.9977	5.5156	2.0000
243.7000	68.7705	66.8963	63.9123	5.5161	2.0000
243.8000	68.7210	66.7428	63.8270	5.5165	2.0000
243.9000	68.9055	66.7593	63.9979	5.5170	2.0000
244.0000	69.0996	66.7830	64.1794	5.5175	2.0000
244.1000	69.2938	66.8067	64.3609	5.5180	2.0000
244.2000	69.4880	66.8303	64.5424	5.5185	2.0000
244.3000	69.6821	66.8540	64.7239	5.5188	2.0000
244.4000	69.8763	66.8777	64.9054	5.5190	2.0000
244.5000	70.0705	66.9013	65.0869	5.5192	2.0000
244.6000	70.2647	66.9250	65.2684	5.5194	2.0000
244.7000	70.4588	66.9487	65.4500	5.5196	2.0000
244.8000	70.6530	66.9723	65.6315	5.5198	2.0000
244.9000	70.8472	66.9960	65.8130	5.5201	2.0000
245.0000	71.0414	67.0197	65.9945	5.5203	2.0000
245.1000	71.0632	66.8558	66.0385	5.5205	2.0000
245.2000	71.0039	66.6037	66.0179	5.5207	2.0000
245.3000	70.9446	66.3516	65.9972	5.5209	2.0000
245.4000	70.8853	66.0994	65.9766	5.5211	2.0000
245.5000	70.8260	65.8473	65.9559	5.5213	2.0000
245.6000	70.7667	65.5952	65.9353	5.5215	2.0000
245.7000	70.7073	65.3431	65.9146	5.5217	2.0000
245.8000	70.6480	65.0909	65.8940	5.5219	2.0000
245.9000	70.5887	64.8388	65.8733	5.5221	2.0000
246.0000	70.5294	64.5867	65.8527	5.5223	2.0000
246.1000	70.4701	64.3346	65.8320	5.5225	2.0000
246.2000	70.4108	64.0825	65.8114	5.5227	2.0000
246.3000	70.3052	63.8481	65.6948	5.5229	2.0000
246.4000	70.1012	63.6513	65.3745	5.5231	2.0000
246.5000	69.8971	63.4546	65.0541	5.5233	2.0000
246.6000	69.6931	63.2579	64.7338	5.5235	2.0000
246.7000	69.4890	63.0612	64.4135	5.5238	2.0000
246.8000	69.2850	62.8644	64.0931	5.5240	2.0000
246.9000	69.0810	62.6677	63.7728	5.5242	2.0000
247.0000	68.8769	62.4710	63.4524	5.5244	2.0000
247.1000	68.6729	62.2743	63.1321	5.5246	2.0000
247.2000	68.4688	62.0775	62.8118	5.5242	2.0000
247.3000	68.2648	61.8808	62.4914	5.5209	2.0000
247.4000	68.0608	61.6841	62.1711	5.5175	2.0000
247.5000	68.0498	61.7120	62.0920	5.5142	2.0000
247.6000	68.1788	61.9027	62.1877	5.5108	2.0000
247.7000	68.3077	62.0933	62.2833	5.5075	2.0000
247.8000	68.4367	62.2839	62.3790	5.5042	2.0000
247.9000	68.5656	62.4745	62.4746	5.5008	2.0000
248.0000	68.6945	62.6651	62.5703	5.4975	2.0000
248.1000	68.8235	62.8558	62.6659	5.4941	2.0000
248.2000	68.9524	63.0464	62.7616	5.4908	2.0000
248.3000	69.0813	63.2370	62.8572	5.4875	2.0000
248.4000	69.2103	63.4276	62.9529	5.4841	2.0000
248.5000	69.3392	63.6182	63.0485	5.4808	2.0000
248.6000	69.4681	63.8089	63.1442	5.4774	2.0000
248.7000	69.6663	63.9886	63.2420	5.4741	2.0000
248.8000	69.9190	64.1597	63.3416	5.4707	2.0000
248.9000	70.1716	64.3308	63.4413	5.4674	2.0000
249.0000	70.4243	64.5020	63.5409	5.4641	2.0000
249.1000	70.6769	64.6731	63.6405	5.4607	2.0000
249.2000	70.9295	64.8442	63.7401	5.4574	2.0000
249.3000	71.1822	65.0154	63.8397	5.4540	2.0000
249.4000	71.4348	65.1865	63.9394	5.4507	2.0000
249.5000	71.6874	65.3576	64.0390	5.4474	2.0000
249.6000	71.9401	65.5288	64.1386	5.4440	2.0000
249.7000	72.1927	65.6999	64.2382	5.4407	2.0000
249.8000	72.4454	65.8710	64.3378	5.4373	2.0000
249.9000	72.6513	65.9486	64.2854	5.4340	2.0000
250.0000	72.8373	65.9860	64.1677	5.4306	2.0000
250.1000	73.0232	66.0234	64.0501	5.4273	2.0000
250.2000	73.2092	66.0609	63.9325	5.4240	2.0000
250.3000	73.3952	66.0983	63.8148	5.4206	2.0000
250.4000	73.5811	66.1357	63.6972	5.4173	2.0000
250.5000	73.7671	66.1732	63.5795	5.4139	2.0000
250.6000	73.9530	66.2106	63.4619	5.4106	2.0000
250.7000	74.1390	66.2481	63.3443	5.4073	2.0000
250.8000	74.3250	66.2855	63.2266	5.4039	2.0000
250.9000	74.5109	66.3229	63.1090	5.4006	2.0000
251.0000	74.7582	66.5247	63.0889	5.3972	2.0000
251.1000	75.0835	66.9356	63.1931	5.3939	2.0000
251.2000	75.4088	67.3465	63.2972	5.3942	2.0000
251.3000	75.7341	67.7574	63.4013	5.3955	2.0000
251.4000	76.0594	68.1683	63.5055	5.3969	2.0000
251.5000	76.3847	68.5792	63.6096	5.3983	2.0000
251.6000	76.7100	68.9901	63.7137	5.3997	2.0000
251.7000	77.0353	69.4010	63.8179	5.4011	2.0000
251.8000	77.3606	69.8119	63.9220	5.4025	2.0000
251.9000	77.6859	70.2228	64.0261	5.4039	2.0000
252.0000	78.0112	70.6337	64.1303	5.4053	2.0000
252.1000	78.3365	71.0446	64.2344	5.4067	2.0000
252.2000	78.5204	71.1973	64.2487	5.4081	2.0000
252.3000	78.6020	71.1631	64.1981	5.4095	2.0000
252.4000	78.6837	71.1290	64.1474	5.4109	2.0000
252.5000	78.7653	71.0948	64.0968	5.4123	2.0000
252.6000	78.8469	71.0606	64.0461	5.4137	2.0000
252.7000	78.9285	71.0264	63.9955	5.4151	2.0000
252.8000	79.0101	70.9923	63.9448	5.4165	2.0000
252.9000	79.0918	70.9581	63.8941	5.4179	2.0000
253.0000	79.1734	70.9239	63.8435	5.4193	2.0000
253.1000	79.2550	70.8897	63.7928	5.4207	2.0000
253.2000	79.3366	70.8556	63.7422	5.4221	2.0000
253.3000	79.4182	70.8214	63.6915	5.4235	2.0000
253.4000	79.4315	70.7095	63.6107	5.4249	2.0000
253.5000	79.3232	70.4595	63.4762	5.4263	2.0000
253.6000	79.2150	70.2095	63.3416	5.4276	2.0000
253.7000	79.1067	69.9595	63.2071	5.4290	2.0000
253.8000	78.9984	69.7096	63.0726	5.4304	2.0000
253.9000	78.8902	69.4596	62.9381	5.4318	2.0000
254.0000	78.7819	69.2096	62.8036	5.4332	2.0000
254.1000	78.6736	68.9596	62.6690	5.4346	2.0000
254.2000	78.5654	68.7096	62.5345	5.4360	2.0000
254.3000	78.4571	68.4596	62.4000	5.4374	2.0000
254.4000	78.3488	68.2096	62.2655	5.4388	2.0000
254.5000	78.2406	67.9597	62.1310	5.4402	2.0000
254.6000	78.2094	67.8345	62.0542	5.4416	2.0000
254.7000	78.2554	67.8343	62.0353	5.4430	2.0000
254.8000	78.3014	67.8341	62.0163	5.4420	2.0000
254.9000	78.3474	67.8338	61.9974	5.4388	2.0000
255.0000	78.3934	67.8336	61.9784	5.4356	2.0000
255.1000	78.4394	67.8333	61.9595	5.4324	2.0000
255.2000	78.4854	67.8331	61.9405	5.4292	2.0000
255.3000	78.5314	67.8328	61.9216	5.4260	2.0000
255.4000	78.5774	67.8326	61.9026	5.4228	2.0000
255.5000	78.6234	67.8323	61.8836	5.4196	2.0000
255.6000	78.6694	67.8321	61.8647	5.4164	2.0000
255.7000	78.7154	67.8319	61.8457	5.4131	2.0000
255.8000	78.7506	67.8255	61.8214	5.4099	2.0000
255.9000	78.5263	67.6716	61.6687	5.4067	2.0000
256.0000	78.3019	67.5177	61.5160	5.4035	2.0000
256.1000	78.0776	67.3639	61.3633	5.4003	2.0000
256.2000	77.8533	67.2100	61.2106	5.3971	2.0000
256.3000	77.6289	67.0562	61.0579	5.3939	2.0000
256.4000	77.4046	66.9023	60.9051	5.3907	2.0000
256.5000	77.1802	66.7484	60.7524	5.3875	2.0000
256.6000	76.9559	66.5946	60.5997	5.3843	2.0000
256.7000	76.7315	66.4407	60.4470	5.3811	2.0000
256.8000	76.5072	66.2868	60.2943	5.3779	2.0000
256.9000	76.2828	66.1330	60.1416	5.3747	2.0000
257.0000	76.0585	65.9791	59.9889	5.3715	2.0000
257.1000	75.8516	65.8154	59.8600	5.3683	2.0000
257.2000	75.6503	65.6485	59.7387	5.3651	2.0000
257.3000	75.4489	65.4816	59.6174	5.3619	2.0000
257.4000	75.2475	65.3148	59.4961	5.3586	2.0000
257.5000	75.0462	65.1479	59.3747	5.3554	2.0000
257.6000	74.8448	64.9810	59.2534	5.3522	2.0000
257.7000	74.6434	64.8142	59.1321	5.3490	2.0000
257.8000	74.4421	64.6473	59.0108	5.3458	2.0000
257.9000	74.2407	64.4804	58.8895	5.3426	2.0000
258.0000	74.0393	64.3136	58.7681	5.3394	2.0000
258.1000	73.8380	64.1467	58.6468	5.3354	2.0000
258.2000	73.6366	63.9798	58.5255	5.3303	2.0000
258.3000	73.6823	64.1666	58.7517	5.3252	2.0000
258.4000	73.7438	64.3759	59.0001	5.3201	2.0000
258.5000	73.8053	64.5852	59.2485	5.3150	2.0000
258.6000	73.8667	64.7945	59.4969	5.3099	2.0000
258.7000	73.9282	65.0038	59.7453	5.3048	2.0000
258.8000	73.9897	65.2131	59.9937	5.2997	2.0000
258.9000	74.0512	65.4224	60.2421	5.2946	2.0000
259.0000	74.1126	65.6318	60.4905	5.2895	2.0000
259.1000	74.1741	65.8411	60.7389	5.2844	2.0000
259.2000	74.2356	66.0504	60.9873	5.2793	2.0000
259.3000	74.2970	66.2597	61.2357	5.2742	2.0000
259.4000	74.3440	66.4507	61.4648	5.2691	2.0000
259.5000	74.1631	66.3554	61.3926	5.2640	2.0000
259.6000	73.9822	66.2600	61.3204	5.2589	2.0000
259.7000	73.8013	66.1646	61.2482	5.2538	2.0000
259.8000	73.6204	66.0692	61.1760	5.2487	2.0000
259.9000	73.4395	65.9739	61.1037	5.2436	2.0000
260.0000	73.2586	65.8785	61.0315	5.2385	2.0000
260.1000	73.0777	65.7831	60.9593	5.2334	2.0000
260.2000	72.8968	65.6878	60.8871	5.2283	2.0000
260.3000	72.7159	65.5924	60.8149	5.2232	2.0000
260.4000	72.5350	65.4970	60.7427	5.2181	2.0000
260.5000	72.3541	65.4017	60.6704	5.2130	2.0000
260.6000	72.6328	65.8426	61.0717	5.2078	2.0000
260.7000	72.9742	66.3567	61.5375	5.2027	2.0000
260.8000	73.3156	66.8708	62.0032	5.1976	2.0000
260.9000	73.6570	67.3848	62.4690	5.1925	2.0000
261.0000	73.9984	67.8989	62.9348	5.1874	2.0000
261.1000	74.3398	68.4130	63.4006	5.1823	2.0000
261.2000	74.6812	68.9271	63.8664	5.1772	2.0000
261.3000	75.0226	69.4412	64.3322	5.1767	2.0000
261.4000	75.3640	69.9552	64.7980	5.1765	2.0000
261.5000	75.7054	70.4693	65.2637	5.1763	2.0000
261.6000	76.0682	70.9492	65.7165	5.1762	2.0000
261.7000	76.4917	71.3316	66.1324	5.1760	2.0000
261.8000	76.9153	71.7140	66.5482	5.1758	2.0000
261.9000	77.3388	72.0965	66.9640	5.1757	2.0000
262.0000	77.7624	72.4789	67.3798	5.1755	2.0000
262.1000	78.1859	72.8614	67.7956	5.1753	2.0000
262.2000	78.6094	73.2438	68.2115	5.1751	2.0000
262.3000	79.0330	73.6262	68.6273	5.1750	2.0000
262.4000	79.4565	74.0087	69.0431	5.1748	2.0000
262.5000	79.8800	74.3911	69.4589	5.1746	2.0000
262.6000	80.3036	74.7736	69.8747	5.1745	2.0000
262.7000	80.7206	75.1489	70.2772	5.1743	2.0000
262.8000	80.8198	75.1742	70.0272	5.1741	2.0000
262.9000	80.9190	75.1995	69.7772	5.1740	2.0000
263.0000	81.0182	75.2248	69.5271	5.1738	2.0000
263.1000	81.1174	75.2500	69.2771	5.1736	2.0000
263.2000	81.2166	75.2753	69.0270	5.1735	2.0000
263.3000	81.3158	75.3006	68.7770	5.1733	2.0000
263.4000	81.4150	75.3259	68.5269	5.1731	2.0000
263.5000	81.5142	75.3512	68.2769	5.1730	2.0000
263.6000	81.6134	75.3765	68.0269	5.1728	2.0000
263.7000	81.7126	75.4018	67.7768	5.1726	2.0000
263.8000	81.8118	75.4271	67.5268	5.1725	2.0000
263.9000	81.8913	75.3808	67.3358	5.1723	2.0000
264.0000	81.9324	75.1955	67.2595	5.1721	2.0000
264.1000	81.9736	75.0101	67.1832	5.1720	2.0000
264.2000	82.0147	74.8248	67.1069	5.1718	2.0000
264.3000	82.0559	74.6394	67.0306	5.1716	2.0000
264.4000	82.0970	74.4541	66.9543	5.1714	2.0000
264.5000	82.1381	74.2687	66.8780	5.1713	2.0000
264.6000	82.1793	74.0834	66.8017	5.1711	2.0000
264.7000	82.2204	73.8980	66.7254	5.1709	2.0000
264.8000	82.2615	73.7127	66.6490	5.1709	2.0000
264.9000	82.3027	73.5273	66.5727	5.1711	2.0000
265.0000	82.3438	73.3420	66.4964	5.1713	2.0000
265.1000	82.3964	73.1876	66.4075	5.1715	2.0000
265.2000	82.4494	73.0346	66.3180	5.1717	2.0000
265.3000	82.5024	72.8816	66.2285	5.1719	2.0000
265.4000	82.5554	72.7285	66.1390	5.1721	2.0000
265.5000	82.6084	72.5755	66.0494	5.1723	2.0000
265.6000	82.6614	72.4224	65.9599	5.1725	2.0000
265.7000	82.7144	72.2694	65.8704	5.1727	2.0000
265.8000	82.7674	72.1164	65.7809	5.1729	2.0000
265.9000	82.8204	71.9633	65.6914	5.1731	2.0000
266.0000	82.8734	71.8103	65.6019	5.1732	2.0000
266.1000	82.9264	71.6572	65.5124	5.1734	2.0000
266.2000	82.9794	71.5042	65.4229	5.1736	2.0000
266.3000	82.8503	71.2656	65.3538	5.1738	2.0000
266.4000	82.6697	71.0030	65.2903	5.1740	2.0000
266.5000	82.4892	70.7403	65.2268	5.1742	2.0000
266.6000	82.3086	70.4776	65.1634	5.1744	2.0000
266.7000	82.1281	70.2149	65.0999	5.1746	2.0000
266.8000	81.9475	69.9522	65.0365	5.1748	2.0000
266.9000	81.7670	69.6895	64.9730	5.1750	2.0000
267.0000	81.5864	69.4269	64.9096	5.1752	2.0000
267.1000	81.4059	69.1642	64.8461	5.1754	2.0000
267.2000	81.2253	68.9015	64.7827	5.1756	2.0000
267.3000	81.0448	68.6388	64.7192	5.1758	2.0000
267.4000	80.8642	68.3761	64.6558	5.1760	2.0000
267.5000	80.7560	68.2092	64.5178	5.1762	2.0000
267.6000	80.6576	68.0554	64.3697	5.1764	2.0000
267.7000	80.5592	67.9015	64.2216	5.1766	2.0000
267.8000	80.4608	67.7477	64.0734	5.1767	2.0000
267.9000	80.3624	67.5938	63.9253	5.1769	2.0000
268.0000	80.2640	67.4400	63.7772	5.1771	2.0000
268.1000	80.1656	67.2861	63.6291	5.1773	2.0000
268.2000	80.0672	67.1323	63.4809	5.1775	2.0000
268.3000	79.9688	66.9784	63.3328	5.1777	2.0000
268.4000	79.8704	66.8246	63.1847	5.1779	2.0000
268.5000	79.7720	66.6707	63.0366	5.1777	2.0000
268.6000	79.7205	66.5740	62.9376	5.1722	2.0000
268.7000	79.7603	66.5880	62.9340	5.1668	2.0000
268.8000	79.8000	66.6021	62.9304	5.1614	2.0000
268.9000	79.8398	66.6162	62.9268	5.1560	2.0000
269.0000	79.8795	66.6302	62.9231	5.1506	2.0000
269.1000	79.9193	66.6443	62.9195	5.1451	2.0000
269.2000	79.9591	66.6584	62.9159	5.1397	2.0000
269.3000	79.9988	66.6724	62.9123	5.1343	2.0000
269.4000	80.0386	66.6865	62.9087	5.1289	2.0000
269.5000	80.0783	66.7006	62.9051	5.1235	2.0000
269.6000	80.1181	66.7146	62.9015	5.1180	2.0000
269.7000	80.1578	66.7287	62.8979	5.1126	2.0000
269.8000	80.0894	66.6300	62.8052	5.1072	2.0000
269.9000	79.8718	66.3754	62.5893	5.1018	2.0000
270.0000	79.6541	66.1208	62.3735	5.0964	2.0000
270.1000	79.4364	65.8663	62.1577	5.0909	2.0000
270.2000	79.2187	65.6117	61.9419	5.0855	2.0000
270.3000	79.0010	65.3572	61.7261	5.0801	2.0000
270.4000	78.7833	65.1026	61.5103	5.0747	2.0000
270.5000	78.5656	64.8481	61.2945	5.0692	2.0000
270.6000	78.3479	64.5935	61.0786	5.0638	2.0000
270.7000	78.1302	64.3390	60.8628	5.0584	2.0000
270.8000	77.9125	64.0844	60.6470	5.0530	2.0000
270.9000	77.6948	63.8299	60.4312	5.0476	2.0000
271.0000	77.4390	63.6614	60.3053	5.0421	2.0000
271.1000	77.1480	63.5724	60.2623	5.0367	2.0000
271.2000	76.8570	63.4834	60.2193	5.0313	2.0000
271.3000	76.5660	63.3944	60.1763	5.0259	2.0000
271.4000	76.2750	63.3054	60.1333	5.0205	2.0000
271.5000	75.9840	63.2164	60.0903	5.0177	2.0000
271.6000	75.6929	63.1274	60.0473	5.0236	2.0000
271.7000	75.4019	63.0384	60.0042	5.0294	2.0000
271.8000	75.1109	62.9494	59.9612	5.0352	2.0000
271.9000	74.8199	62.8604	59.9182	5.0411	2.0000
272.0000	74.5289	62.7714	59.8752	5.0469	2.0000
272.1000	74.2379	62.6824	59.8322	5.0527	2.0000
272.2000	74.0131	62.5967	59.8176	5.0585	2.0000
272.3000	73.8495	62.5141	59.8291	5.0644	2.0000
272.4000	73.6858	62.4315	59.8406	5.0702	2.0000
272.5000	73.5222	62.3489	59.8521	5.0760	2.0000
272.6000	73.3586	62.2663	59.8636	5.0819	2.0000
272.7000	73.1950	62.1837	59.8751	5.0877	2.0000
272.8000	73.0313	62.1011	59.8866	5.0935	2.0000
272.9000	72.8677	62.0185	59.8980	5.0994	2.0000
273.0000	72.7041	61.9359	59.9095	5.1052	2.0000
273.1000	72.5405	61.8533	59.9210	5.1110	2.0000
273.2000	72.3768	61.7706	59.9325	5.1168	2.0000
273.3000	72.2132	61.6880	59.9440	5.1227	2.0000
273.4000	72.0379	61.6197	59.9387	5.1285	2.0000
273.5000	71.8255	61.5967	59.8799	5.1343	2.0000
273.6000	71.6131	61.5737	59.8211	5.1402	2.0000
273.7000	71.4007	61.5507	59.7623	5.1460	2.0000
273.8000	71.1883	61.5277	59.7035	5.1518	2.0000
273.9000	70.9759	61.5047	59.6447	5.1577	2.0000
274.0000	70.7635	61.4817	59.5859	5.1635	2.0000
274.1000	70.5511	61.4587	59.5271	5.1693	2.0000
274.2000	70.3387	61.4357	59.4683	5.1751	2.0000
274.3000	70.1263	61.4127	59.4096	5.1810	2.0000
274.4000	69.9139	61.3897	59.3508	5.1868	2.0000
274.5000	69.7015	61.3667	59.2920	5.1926	2.0000
274.6000	69.4892	61.3437	59.2332	5.1985	2.0000
274.7000	69.1007	61.1440	58.8927	5.2043	2.0000
274.8000	68.7087	60.9406	58.5465	5.2101	2.0000
274.9000	68.3166	60.7373	58.2004	5.2160	2.0000
275.0000	67.9246	60.5339	57.8542	5.2218	2.0000
275.1000	67.5325	60.3306	57.5080	5.2276	2.0000
275.2000	67.1405	60.1272	57.1618	5.2334	2.0000
275.3000	66.7484	59.9239	56.8156	5.2393	2.0000
275.4000	66.3564	59.7205	56.4694	5.2451	2.0000
275.5000	65.9643	59.5172	56.1232	5.2509	2.0000
275.6000	65.5723	59.3138	55.7770	5.2568	2.0000
275.7000	65.1802	59.1105	55.4308	5.2626	2.0000
275.8000	64.8206	58.9283	55.1230	5.2684	2.0000
275.9000	64.7533	58.9372	55.1612	5.2742	2.0000
276.0000	64.6860	58.9461	55.1994	5.2801	2.0000
276.1000	64.6187	58.9550	55.2375	5.2823	2.0000
276.2000	64.5513	58.9638	55.2757	5.2793	2.0000
276.3000	64.4840	58.9727	55.3139	5.2762	2.0000
276.4000	64.4167	58.9816	55.3520	5.2732	2.0000
276.5000	64.3493	58.9905	55.3902	5.2701	2.0000
276.6000	64.2820	58.9993	55.4283	5.2670	2.0000
276.7000	64.2147	59.0082	55.4665	5.2640	2.0000
276.8000	64.1474	59.0171	55.5047	5.2609	2.0000
276.9000	64.0800	59.0260	55.5428	5.2578	2.0000
277.0000	64.0127	59.0348	55.5810	5.2548	2.0000
277.1000	63.8258	59.0785	55.6342	5.2517	2.0000
277.2000	63.6364	59.1229	55.6877	5.2486	2.0000
277.3000	63.4471	59.1673	55.7412	5.2456	2.0000
277.4000	63.2577	59.2117	55.7947	5.2425	2.0000
277.5000	63.0683	59.2560	55.8482	5.2394	2.0000
277.6000	62.8790	59.3004	55.9017	5.2364	2.0000
277.7000	62.6896	59.3448	55.9552	5.2333	2.0000
277.8000	62.5002	59.3892	56.0088	5.2302	2.0000
277.9000	62.3109	59.4336	56.0623	5.2272	2.0000
278.0000	62.1215	59.4779	56.1158	5.2241	2.0000
278.1000	61.9322	59.5223	56.1693	5.2210	2.0000
278.2000	61.7428	59.5667	56.2228	5.2180	2.0000
278.3000	61.5525	59.4295	56.0562	5.2149	2.0000
278.4000	61.3622	59.2885	55.8852	5.2118	2.0000
278.5000	61.1718	59.1476	55.7141	5.2088	2.0000
278.6000	60.9815	59.0066	55.5431	5.2057	2.0000
278.7000	60.7912	58.8656	55.3720	5.2026	2.0000
278.8000	60.6009	58.7247	55.2010	5.1996	2.0000
278.9000	60.4105	58.5837	55.0299	5.1965	2.0000
279.0000	60.2202	58.4428	54.8588	5.1935	2.0000
279.1000	60.0299	58.3018	54.6878	5.1904	2.0000
279.2000	59.8396	58.1609	54.5167	5.1873	2.0000
279.3000	59.6492	58.0199	54.3457	5.1843	2.0000
279.4000	59.4896	57.9153	54.2129	5.1812	2.0000
279.5000	59.6057	58.1377	54.4246	5.1776	2.0000
279.6000	59.7219	58.3601	54.6363	5.1734	2.0000
279.7000	59.8381	58.5824	54.8480	5.1692	2.0000
279.8000	59.9543	58.8048	55.0598	5.1650	2.0000
279.9000	60.0705	59.0272	55.2715	5.1608	2.0000
280.0000	60.1867	59.2496	55.4832	5.1566	2.0000
280.1000	60.3029	59.4719	55.6949	5.1524	2.0000
280.2000	60.4191	59.6943	55.9066	5.1482	2.0000
280.3000	60.5353	59.9167	56.1183	5.1440	2.0000
280.4000	60.6514	60.1391	56.3301	5.1398	2.0000
280.5000	60.7676	60.3614	56.5418	5.1357	2.0000
280.6000	60.8402	60.5126	56.7179	5.1315	2.0000
280.7000	60.8354	60.5370	56.8308	5.1273	2.0000
280.8000	60.8305	60.5615	56.9437	5.1231	2.0000
280.9000	60.8256	60.5859	57.0566	5.1189	2.0000
281.0000	60.8207	60.6104	57.1695	5.1147	2.0000
281.1000	60.8159	60.6348	57.2824	5.1105	2.0000
281.2000	60.8110	60.6593	57.3953	5.1063	2.0000
281.3000	60.8061	60.6837	57.5082	5.1021	2.0000
281.4000	60.8012	60.7082	57.6211	5.0979	2.0000
281.5000	60.7964	60.7326	57.7340	5.0937	2.0000
281.6000	60.7915	60.7571	57.8469	5.0895	2.0000
281.7000	60.7866	60.7815	57.9598	5.0853	2.0000
281.8000	61.0052	61.0122	58.1998	5.0811	2.0000
281.9000	61.2238	61.2428	58.4399	5.0769	2.0000
282.0000	61.4424	61.4734	58.6800	5.0728	2.0000
282.1000	61.6611	61.7040	58.9201	5.0686	2.0000
282.2000	61.8797	61.9347	59.1602	5.0665	2.0000
282.3000	62.0983	62.1653	59.4002	5.0699	2.0000
282.4000	62.3169	62.3959	59.6403	5.0732	2.0000
282.5000	62.5355	62.6265	59.8804	5.0766	2.0000
282.6000	62.7541	62.8572	60.1205	5.0800	2.0000
282.7000	62.9728	63.0878	60.3606	5.0834	2.0000
282.8000	63.1914	63.3184	60.6007	5.0868	2.0000
282.9000	63.4149	63.5097	60.8852	5.0901	2.0000
283.0000	63.6443	63.6548	61.2219	5.0935	2.0000
283.1000	63.8736	63.8000	61.5586	5.0969	2.0000
283.2000	64.1029	63.9451	61.8953	5.1003	2.0000
283.3000	64.3323	64.0902	62.2320	5.1037	2.0000
283.4000	64.5616	64.2354	62.5687	5.1070	2.0000
283.5000	64.7909	64.3805	62.9054	5.1104	2.0000
283.6000	65.0202	64.5256	63.2421	5.1138	2.0000
283.7000	65.2496	64.6707	63.5789	5.1172	2.0000
283.8000	65.4789	64.8159	63.9156	5.1206	2.0000
283.9000	65.7082	64.9610	64.2523	5.1239	2.0000
284.0000	65.9376	65.1061	64.5890	5.1273	2.0000
284.1000	66.0345	65.0378	64.6493	5.1307	2.0000
284.2000	66.1023	64.9226	64.6489	5.1341	2.0000
284.3000	66.1701	64.8073	64.6485	5.1375	2.0000
284.4000	66.2380	64.6921	64.6482	5.1408	2.0000
284.5000	66.3058	64.5769	64.6478	5.1442	2.0000
284.6000	66.3736	64.4617	64.6474	5.1476	2.0000
284.7000	66.4414	64.3465	64.6470	5.1510	2.0000
284.8000	66.5093	64.2313	64.6466	5.1544	2.0000
284.9000	66.5771	64.1160	64.6463	5.1577	2.0000
285.0000	66.6449	64.0008	64.6459	5.1611	2.0000
285.1000	66.7127	63.8856	64.6455	5.1645	2.0000
285.2000	66.8443	63.9173	64.6333	5.1679	2.0000
285.3000	67.0507	64.1214	64.6073	5.1713	2.0000
285.4000	67.2571	64.3256	64.5813	5.1761	2.0000
285.5000	67.4635	64.5297	64.5553	5.1827	2.0000
285.6000	67.6699	64.7339	64.5292	5.1894	2.0000
285.7000	67.8762	64.9380	64.5032	5.1960	2.0000
285.8000	68.0826	65.1422	64.4772	5.2027	2.0000
285.9000	68.2890	65.3463	64.4512	5.2094	2.0000
286.0000	68.4954	65.5504	64.4252	5.2160	2.0000
286.1000	68.7018	65.7546	64.3991	5.2227	2.0000
286.2000	68.9082	65.9587	64.3731	5.2293	2.0000
286.3000	69.1145	66.1629	64.3471	5.2360	2.0000
286.4000	69.2263	66.1439	64.2719	5.2426	2.0000
286.5000	69.2696	65.9635	64.1612	5.2493	2.0000
286.6000	69.3129	65.7830	64.0504	5.2559	2.0000
286.7000	69.3562	65.6026	63.9397	5.2626	2.0000
286.8000	69.3995	65.4221	63.8289	5.2693	2.0000
286.9000	69.4428	65.2416	63.7182	5.2759	2.0000
287.0000	69.4862	65.0612	63.6075	5.2826	2.0000
287.1000	69.5295	64.8807	63.4967	5.2892	2.0000
287.2000	69.5728	64.7003	63.3860	5.2959	2.0000
287.3000	69.6161	64.5198	63.2752	5.3025	2.0000
287.4000	69.6594	64.3393	63.1645	5.3092	2.0000
287.5000	69.7027	64.1589	63.0537	5.3158	2.0000
287.6000	69.6954	64.0844	62.9036	5.3225	2.0000
287.7000	69.6622	64.0645	62.7332	5.3292	2.0000
287.8000	69.6289	64.0446	62.5628	5.3358	2.0000
287.9000	69.5957	64.0247	62.3924	5.3425	2.0000
288.0000	69.5624	64.0048	62.2220	5.3491	2.0000
288.1000	69.5292	63.9849	62.0516	5.3558	2.0000
288.2000	69.4959	63.9650	61.8812	5.3624	2.0000
288.3000	69.4627	63.9451	61.7108	5.3691	2.0000
288.4000	69.4294	63.9252	61.5404	5.3758	2.0000
288.5000	69.3962	63.9053	61.3700	5.3824	2.0000
288.6000	69.3629	63.8854	61.1996	5.3891	2.0000
288.7000	69.3297	63.8655	61.0292	5.3957	2.0000
288.8000	69.3453	63.8751	60.8927	5.3981	2.0000
288.9000	69.3799	63.8961	60.7694	5.3973	2.0000
289.0000	69.4146	63.9171	60.6461	5.3964	2.0000
289.1000	69.4492	63.9381	60.5229	5.3955	2.0000
289.2000	69.4838	63.9591	60.3996	5.3946	2.0000
289.3000	69.5185	63.9801	60.2763	5.3937	2.0000
289.4000	69.5531	64.0011	60.1530	5.3928	2.0000
289.5000	69.5877	64.0221	60.0298	5.3919	2.0000
289.6000	69.6223	64.0431	59.9065	5.3910	2.0000
289.7000	69.6570	64.0641	59.7832	5.3901	2.0000
289.8000	69.6916	64.0851	59.6599	5.3892	2.0000
289.9000	69.7262	64.1061	59.5366	5.3883	2.0000
290.0000	69.7242	64.0644	59.4413	5.3875	2.0000
290.1000	69.6179	63.8440	59.4253	5.3866	2.0000
290.2000	69.5115	63.6236	59.4092	5.3857	2.0000
290.3000	69.4052	63.4032	59.3932	5.3848	2.0000
290.4000	69.2988	63.1828	59.3772	5.3839	2.0000
290.5000	69.1925	62.9624	59.3612	5.3830	2.0000
290.6000	69.0862	62.7420	59.3452	5.3821	2.0000
290.7000	68.9798	62.5216	59.3292	5.3812	2.0000
290.8000	68.8735	62.3012	59.3132	5.3803	2.0000
290.9000	68.7671	62.0808	59.2972	5.3794	2.0000
291.0000	68.6608	61.8604	59.2812	5.3785	2.0000
291.1000	68.5544	61.6400	59.2652	5.3776	2.0000
291.2000	68.4798	61.4675	59.2638	5.3768	2.0000
291.3000	68.5712	61.5463	59.3392	5.3759	2.0000
291.4000	68.6626	61.6252	59.4146	5.3750	2.0000
291.5000	68.7540	61.7040	59.4900	5.3741	2.0000
291.6000	68.8455	61.7828	59.5654	5.3732	2.0000
291.7000	68.9369	61.8617	59.6408	5.3738	2.0000
291.8000	69.0283	61.9405	59.7162	5.3744	2.0000
291.9000	69.1198	62.0194	59.7916	5.3750	2.0000
292.0000	69.2112	62.0982	59.8670	5.3756	2.0000
292.1000	69.3026	62.1770	59.9424	5.3762	2.0000
292.2000	69.3940	62.2559	60.0178	5.3768	2.0000
292.3000	69.4855	62.3347	60.0931	5.3774	2.0000
292.4000	69.5769	62.4136	60.1685	5.3780	2.0000
292.5000	69.5884	62.3842	60.0891	5.3786	2.0000
292.6000	69.5623	62.3038	59.9369	5.3792	2.0000
292.7000	69.5362	62.2234	59.7847	5.3798	2.0000
292.8000	69.5101	62.1431	59.6324	5.3804	2.0000
292.9000	69.4840	62.0627	59.4802	5.3810	2.0000
293.0000	69.4579	61.9824	59.3279	5.3816	2.0000
293.1000	69.4318	61.9020	59.1757	5.3822	2.0000
293.2000	69.4057	61.8217	59.0235	5.3828	2.0000
293.3000	69.3796	61.7413	58.8712	5.3834	2.0000
293.4000	69.3535	61.6610	58.7190	5.3840	2.0000
293.5000	69.3274	61.5806	58.5668	5.3846	2.0000
293.6000	69.3013	61.5003	58.4145	5.3852	2.0000
293.7000	69.2725	61.4171	58.2625	5.3858	2.0000
293.8000	69.1132	61.1953	58.1223	5.3864	2.0000
293.9000	68.9538	60.9735	57.9822	5.3870	2.0000
294.0000	68.7945	60.7516	57.8420	5.3876	2.0000
294.1000	68.6351	60.5298	57.7019	5.3882	2.0000
294.2000	68.4758	60.3080	57.5617	5.3888	2.0000
294.3000	68.3164	60.0862	57.4215	5.3894	2.0000
294.4000	68.1571	59.8644	57.2814	5.3900	2.0000
294.5000	67.9977	59.6425	57.1412	5.3906	2.0000
294.6000	67.8384	59.4207	57.0010	5.3912	2.0000
294.7000	67.6791	59.1989	56.8609	5.3918	2.0000
294.8000	67.5197	58.9771	56.7207	5.3924	2.0000
294.9000	67.3759	58.7755	56.5971	5.3930	2.0000
295.0000	67.4758	58.8916	56.7324	5.3936	2.0000
295.1000	67.5756	59.0077	56.8677	5.3942	2.0000
295.2000	67.6755	59.1238	57.0030	5.3948	2.0000
295.3000	67.7754	59.2399	57.1384	5.3951	2.0000
295.4000	67.8752	59.3559	57.2737	5.3953	2.0000
295.5000	67.9751	59.4720	57.4090	5.3955	2.0000
295.6000	68.0749	59.5881	57.5443	5.3957	2.0000
295.7000	68.1748	59.7042	57.6796	5.3960	2.0000
295.8000	68.2747	59.8202	57.8150	5.3962	2.0000
295.9000	68.3745	59.9363	57.9503	5.3964	2.0000
296.0000	68.4744	60.0524	58.0856	5.3966	2.0000
296.1000	68.5742	60.1685	58.2209	5.3968	2.0000
296.2000	68.6181	60.2919	58.4316	5.3970	2.0000
296.3000	68.6442	60.4178	58.6661	5.3973	2.0000
296.4000	68.6704	60.5436	58.9005	5.3975	2.0000
296.5000	68.6965	60.6694	59.1350	5.3977	2.0000
296.6000	68.7227	60.7952	59.3695	5.3979	2.0000
296.7000	68.7488	60.9211	59.6040	5.3981	2.0000
296.8000	68.7750	61.0469	59.8384	5.3983	2.0000
296.9000	68.8011	61.1727	60.0729	5.3986	2.0000
297.0000	68.8272	61.2985	60.3074	5.3988	2.0000
297.1000	68.8534	61.4244	60.5418	5.3990	2.0000
297.2000	68.8795	61.5502	60.7763	5.3992	2.0000
297.3000	68.9057	61.6760	61.0108	5.3994	2.0000
297.4000	68.9084	61.7655	61.1399	5.3996	2.0000
297.5000	68.8787	61.8049	61.1235	5.3999	2.0000
297.6000	68.8490	61.8444	61.1071	5.4001	2.0000
297.7000	68.8193	61.8838	61.0906	5.4003	2.0000
297.8000	68.7896	61.9232	61.0742	5.4005	2.0000
297.9000	68.7599	61.9626	61.0578	5.4007	2.0000
298.0000	68.7302	62.0020	61.0414	5.4009	2.0000
298.1000	68.7005	62.0414	61.0250	5.4012	2.0000
298.2000	68.6708	62.0809	61.0085	5.4014	2.0000
298.3000	68.6411	62.1203	60.9921	5.4016	2.0000
298.4000	68.6114	62.1597	60.9757	5.3986	2.0000
298.5000	68.5817	62.1991	60.9593	5.3952	2.0000
298.6000	68.6294	62.3133	61.0647	5.3917	2.0000
298.7000	68.7681	62.5154	61.3131	5.3883	2.0000
298.8000	68.9068	62.7174	61.5616	5.3849	2.0000
298.9000	69.0454	62.9195	61.8100	5.3814	2.0000
299.0000	69.1841	63.1215	62.0585	5.3780	2.0000
299.1000	69.3228	63.3236	62.3069	5.3745	2.0000
299.2000	69.4615	63.5256	62.5553	5.3711	2.0000
299.3000	69.6001	63.7277	62.8038	5.3677	2.0000
299.4000	69.7388	63.9297	63.0522	5.3642	2.0000
299.5000	69.8775	64.1318	63.3006	5.3608	2.0000
299.6000	70.0162	64.3338	63.5491	5.3574	2.0000
299.7000	70.1548	64.5359	63.7975	5.3539	2.0000
299.8000	70.2649	64.7052	64.0089	5.3505	2.0000
299.9000	70.2247	64.7031	64.0257	5.3471	2.0000
300.0000	70.1846	64.7009	64.0425	5.3436	2.0000
300.1000	70.1444	64.6987	64.0593	5.3402	2.0000
300.2000	70.1042	64.6965	64.0762	5.3367	2.0000
300.3000	70.0641	64.6944	64.0930	5.3333	2.0000
300.4000	70.0239	64.6922	64.1098	5.3299	2.0000
300.5000	69.9837	64.6900	64.1266	5.3264	2.0000
300.6000	69.9436	64.6878	64.1434	5.3230	2.0000
300.7000	69.9034	64.6857	64.1603	5.3196	2.0000
300.8000	69.8632	64.6835	64.1771	5.3161	2.0000
300.9000	69.8231	64.6813	64.1939	5.3127	2.0000
301.0000	69.8640	64.7731	64.2373	5.3092	2.0000
301.1000	70.0492	65.0319	64.3281	5.3058	2.0000
301.2000	70.2343	65.2908	64.4188	5.3024	2.0000
301.3000	70.4195	65.5496	64.5095	5.2989	2.0000
301.4000	70.6046	65.8084	64.6003	5.2955	2.0000
301.5000	70.7898	66.0673	64.6910	5.2921	2.0000
301.6000	70.9750	66.3261	64.7818	5.2886	2.0000
301.7000	71.1601	66.5849	64.8725	5.2883	2.0000
301.8000	71.3453	66.8438	64.9632	5.2901	2.0000
301.9000	71.5304	67.1026	65.0540	5.2919	2.0000
302.0000	71.7156	67.3614	65.1447	5.2937	2.0000
302.1000	71.9007	67.6203	65.2354	5.2955	2.0000
302.2000	72.0520	67.8130	65.3080	5.2973	2.0000
302.3000	72.1067	67.8175	65.3288	5.2991	2.0000
302.4000	72.1615	67.8220	65.3496	5.3009	2.0000
302.5000	72.2163	67.8265	65.3705	5.3027	2.0000
302.6000	72.2710	67.8310	65.3913	5.3045	2.0000
302.7000	72.3258	67.8355	65.4121	5.3063	2.0000
302.8000	72.3806	67.8400	65.4329	5.3081	2.0000
302.9000	72.4353	67.8445	65.4537	5.3099	2.0000
303.0000	72.4901	67.8490	65.4745	5.3117	2.0000
303.1000	72.5448	67.8535	65.4953	5.3135	2.0000
303.2000	72.5996	67.8580	65.5162	5.3153	2.0000
303.3000	72.6544	67.8625	65.5370	5.3170	2.0000
303.4000	72.7091	67.8670	65.5578	5.3188	2.0000
303.5000	72.6968	67.7952	65.4844	5.3206	2.0000
303.6000	72.5838	67.6090	65.2697	5.3224	2.0000
303.7000	72.4709	67.4227	65.0550	5.3242	2.0000
303.8000	72.3579	67.2365	64.8402	5.3260	2.0000
303.9000	72.2450	67.0503	64.6255	5.3278	2.0000
304.0000	72.1320	66.8640	64.4108	5.3296	2.0000
304.1000	72.0191	66.6778	64.1961	5.3314	2.0000
304.2000	71.9061	66.4916	63.9814	5.3332	2.0000
304.3000	71.7932	66.3053	63.7667	5.3350	2.0000
304.4000	71.6803	66.1191	63.5520	5.3368	2.0000
304.5000	71.5673	65.9328	63.3372	5.3386	2.0000
304.6000	71.4544	65.7466	63.1225	5.3404	2.0000
304.7000	71.3414	65.5604	62.9078	5.3422	2.0000
304.8000	71.3906	65.6450	62.9763	5.3440	2.0000
304.9000	71.4663	65.7737	63.0908	5.3458	2.0000
305.0000	71.5419	65.9024	63.2054	5.3476	2.0000
305.1000	71.6175	66.0312	63.3200	5.3489	2.0000
305.2000	71.6932	66.1599	63.4346	5.3502	2.0000
305.3000	71.7688	66.2886	63.5491	5.3515	2.0000
305.4000	71.8445	66.4173	63.6637	5.3529	2.0000
305.5000	71.9201	66.5461	63.7783	5.3542	2.0000
305.6000	71.9957	66.6748	63.8929	5.3555	2.0000
305.7000	72.0714	66.8035	64.0074	5.3568	2.0000
305.8000	72.1470	66.9322	64.1220	5.3582	2.0000
305.9000	72.2226	67.0610	64.2366	5.3595	2.0000
306.0000	72.2578	67.1224	64.2794	5.3608	2.0000
306.1000	72.1775	66.9922	64.1180	5.3621	2.0000
306.2000	72.0973	66.8620	63.9566	5.3635	2.0000
306.3000	72.0171	66.7318	63.7952	5.3648	2.0000
306.4000	71.9369	66.6016	63.6339	5.3661	2.0000
306.5000	71.8567	66.4714	63.4725	5.3674	2.0000
306.6000	71.7764	66.3412	63.3111	5.3688	2.0000
306.7000	71.6962	66.2110	63.1497	5.3701	2.0000
306.8000	71.6160	66.0808	62.9883	5.3714	2.0000
306.9000	71.5358	65.9506	62.8269	5.3727	2.0000
307.0000	71.4556	65.8204	62.6655	5.3741	2.0000
307.1000	71.3753	65.6902	62.5041	5.3754	2.0000
